"sep=	"
Shimmer_92E8_TimestampSync_Unix_CAL	Shimmer_92E8_GSR_Skin_Conductance_CAL	Shimmer_92E8_PPG_A13_CAL	
ms	uS	mV	
1.6791453375584922E12	0.7381507381507381	796.3369963369963	
1.6791453375623982E12	0.7390387390387391	863.7362637362637	
1.6791453375663042E12	0.7319347319347319	945.7875457875457	
1.6791453375702102E12	0.7297147297147296	1035.8974358974358	
1.6791453375741162E12	0.7297147297147296	1082.051282051282	
1.6791453375780222E12	0.7345987345987345	1145.7875457875457	
1.6791453375819282E12	0.7603507603507603	1245.4212454212454	
1.6791453375858342E12	0.73992673992674	1270.3296703296703	
1.6791453375897405E12	0.7448107448107448	1297.4358974358975	
1.6791453375936465E12	0.7377067377067377	1279.120879120879	
1.6791453375975525E12	0.7363747363747363	1245.4212454212454	
1.6791453376014585E12	0.7363747363747363	1218.3150183150183	
1.6791453376053645E12	0.7337107337107337	1107.6923076923076	
1.6791453376092705E12	0.7448107448107448	1049.084249084249	
1.6791453376131765E12	0.7594627594627595	1021.978021978022	
1.6791453376170825E12	0.7363747363747363	981.6849816849816	
1.6791453376209885E12	0.7479187479187479	983.8827838827838	
1.6791453376248945E12	0.7599067599067599	938.4615384615385	
1.6791453376288005E12	0.7674547674547674	843.2234432234432	
1.6791453376327065E12	0.774114774114774	813.1868131868131	
1.6791453376366125E12	0.7248307248307249	809.5238095238095	
1.6791453376405186E12	0.7385947385947385	923.8095238095237	
1.6791453376444246E12	0.7523587523587524	1076.923076923077	
1.6791453376483306E12	0.7505827505827507	1201.4652014652013	
1.6791453376522366E12	0.7567987567987569	1328.937728937729	
1.6791453376561426E12	0.7514707514707515	1425.6410256410256	
1.6791453376600488E12	0.7292707292707292	1505.4945054945053	
1.6791453376639548E12	0.7252747252747253	1616.117216117216	
1.6791453376678608E12	0.7257187257187256	1763.3699633699632	
1.6791453376717668E12	0.73992673992674	1912.8205128205127	
1.6791453376756729E12	0.7532467532467534	2049.8168498168498	
1.6791453376795789E12	0.743034743034743	2170.6959706959706	
1.6791453376834849E12	0.735042735042735	2235.8974358974356	
1.6791453376873909E12	0.7288267288267287	2304.029304029304	
1.6791453376912969E12	0.7323787323787323	2374.358974358974	
1.679145337695203E12	0.7279387279387278	2406.5934065934066	
1.679145337699109E12	0.7545787545787547	2515.7509157509157	
1.679145337703015E12	0.7443667443667444	2465.201465201465	
1.679145337706921E12	0.7528027528027528	2476.190476190476	
1.679145337710827E12	0.7492507492507493	2487.179487179487	
1.679145337714733E12	0.7323787323787323	2460.07326007326	
1.679145337718639E12	0.7359307359307358	2457.875457875458	
1.679145337722545E12	0.7421467421467423	2475.457875457875	
1.679145337726451E12	0.7736707736707735	2526.7399267399264	
1.6791453377303572E12	0.7261627261627261	2387.5457875457873	
1.6791453377342632E12	0.7425907425907425	2372.8937728937726	
1.6791453377381692E12	0.755910755910756	2337.7289377289376	
1.6791453377420752E12	0.7421467421467423	2273.9926739926736	
1.6791453377459812E12	0.7545787545787547	2254.212454212454	
1.6791453377498872E12	0.7288267288267287	2171.428571428571	
1.6791453377537932E12	0.7385947385947385	2131.135531135531	
1.6791453377576992E12	0.7292707292707292	2080.5860805860802	
1.6791453377616052E12	0.7554667554667555	2102.5641025641025	
1.6791453377655112E12	0.7412587412587412	1971.4285714285713	
1.6791453377694172E12	0.7550227550227551	1923.0769230769229	
1.6791453377733232E12	0.7443667443667444	1849.8168498168498	
1.6791453377772292E12	0.7381507381507381	1755.311355311355	
1.6791453377811353E12	0.7519147519147519	1680.5860805860805	
1.6791453377850413E12	0.731046731046731	1587.5457875457873	
1.6791453377889473E12	0.7279387279387278	1533.3333333333333	
1.6791453377928533E12	0.7536907536907537	1498.9010989010987	
1.6791453377967593E12	0.7425907425907425	1405.8608058608058	
1.6791453378006655E12	0.7572427572427574	1397.069597069597	
1.6791453378045715E12	0.7377067377067377	1350.9157509157508	
1.6791453378084775E12	0.7368187368187368	1294.5054945054944	
1.6791453378123835E12	0.7390387390387391	1243.2234432234432	
1.6791453378162896E12	0.735042735042735	1206.5934065934066	
1.6791453378201956E12	0.7323787323787323	1176.5567765567764	
1.6791453378241016E12	0.7323787323787323	1101.098901098901	
1.6791453378280076E12	0.7536907536907537	1039.5604395604396	
1.6791453378319136E12	0.7576867576867576	985.3479853479853	
1.6791453378358196E12	0.7461427461427462	953.113553113553	
1.6791453378397256E12	0.7403707403707404	939.1941391941391	
1.6791453378436316E12	0.7403707403707404	901.8315018315018	
1.6791453378475376E12	0.7341547341547341	884.9816849816849	
1.6791453378514436E12	0.7332667332667332	867.3992673992674	
1.6791453378553496E12	0.731046731046731	849.8168498168498	
1.6791453378592556E12	0.7443667443667444	857.1428571428571	
1.6791453378631616E12	0.759018759018759	881.3186813186812	
1.6791453378670676E12	0.7545787545787547	864.4688644688645	
1.6791453378709739E12	0.743034743034743	846.8864468864468	
1.67914533787488E12	0.7337107337107337	865.2014652014651	
1.679145337878786E12	0.7301587301587301	901.8315018315018	
1.679145337882692E12	0.7337107337107337	950.1831501831501	
1.679145337886598E12	0.7341547341547341	955.3113553113552	
1.679145337890504E12	0.7363747363747363	954.5787545787546	
1.67914533789441E12	0.7656787656787656	948.7179487179486	
1.679145337898316E12	0.7461427461427462	882.7838827838827	
1.679145337902222E12	0.7510267510267511	822.7106227106226	
1.679145337906128E12	0.7403707403707404	732.6007326007325	
1.679145337910034E12	0.7372627372627372	646.8864468864468	
1.67914533791394E12	0.7847707847707848	572.8937728937728	
1.679145337917846E12	0.7594627594627595	437.3626373626373	
1.679145337921752E12	0.7341547341547341	373.6263736263736	
1.679145337925658E12	0.759018759018759	391.94139194139194	
1.679145337929564E12	0.735042735042735	431.5018315018315	
1.67914533793347E12	0.7452547452547452	503.29670329670324	
1.679145337937376E12	0.7390387390387391	548.7179487179487	
1.6791453379412822E12	0.7341547341547341	595.6043956043956	
1.6791453379451882E12	0.735042735042735	584.6153846153845	
1.6791453379490942E12	0.7319347319347319	613.1868131868132	
1.6791453379530002E12	0.735042735042735	671.7948717948717	
1.6791453379569062E12	0.7625707625707626	768.4981684981684	
1.6791453379608123E12	0.7439227439227439	820.5128205128204	
1.6791453379647183E12	0.7652347652347653	873.2600732600732	
1.6791453379686243E12	0.7581307581307581	876.1904761904761	
1.6791453379725303E12	0.7465867465867466	857.8754578754579	
1.6791453379764363E12	0.7323787323787323	898.1684981684981	
1.6791453379803423E12	0.7283827283827283	987.5457875457874	
1.6791453379842483E12	0.7412587412587412	1119.4139194139193	
1.6791453379881543E12	0.7532467532467534	1295.2380952380952	
1.6791453379920603E12	0.7501387501387502	1464.4688644688645	
1.6791453379959663E12	0.7550227550227551	1663.003663003663	
1.6791453379998723E12	0.73992673992674	1852.0146520146518	
1.6791453380037783E12	0.7257187257187256	2008.058608058608	
1.6791453380076846E12	0.7261627261627261	2210.9890109890107	
1.6791453380115906E12	0.7541347541347542	2461.5384615384614	
1.6791453380154966E12	0.7550227550227551	2508.424908424908	
1.6791453380194026E12	0.7519147519147519	2585.3479853479853	
1.6791453380233086E12	0.7394827394827396	2680.5860805860802	
1.6791453380272146E12	0.7297147297147296	2785.3479853479853	
1.6791453380311206E12	0.7279387279387278	2897.4358974358975	
1.6791453380350266E12	0.7701187701187701	3000.0	
1.6791453380389326E12	0.7301587301587301	2978.7545787545787	
1.6791453380428386E12	0.7314907314907314	2983.150183150183	
1.6791453380467446E12	0.7567987567987569	2979.487179487179	
1.6791453380506506E12	0.7563547563547564	2908.424908424908	
1.6791453380545566E12	0.7448107448107448	2820.5128205128203	
1.6791453380584626E12	0.7479187479187479	2754.5787545787543	
1.6791453380623687E12	0.7381507381507381	2624.908424908425	
1.6791453380662747E12	0.7292707292707292	2538.461538461538	
1.6791453380701807E12	0.7297147297147296	2435.8974358974356	
1.6791453380740867E12	0.7301587301587301	2336.996336996337	
1.679145338077993E12	0.7354867354867355	2246.8864468864467	
1.679145338081899E12	0.7652347652347653	2213.9194139194137	
1.679145338085805E12	0.7403707403707404	2037.3626373626373	
1.679145338089711E12	0.7377067377067377	1879.8534798534797	
1.679145338093617E12	0.7385947385947385	1755.311355311355	
1.679145338097523E12	0.7323787323787323	1684.9816849816848	
1.679145338101429E12	0.7306027306027304	1637.3626373626373	
1.679145338105335E12	0.7306027306027304	1553.8461538461538	
1.679145338109241E12	0.7541347541347542	1510.6227106227104	
1.679145338113147E12	0.759018759018759	1452.7472527472526	
1.679145338117053E12	0.7394827394827396	1381.6849816849815	
1.679145338120959E12	0.7448107448107448	1334.7985347985348	
1.679145338124865E12	0.7567987567987569	1300.3663003663003	
1.679145338128771E12	0.7710067710067708	1221.9780219780218	
1.679145338132677E12	0.7301587301587301	1134.7985347985348	
1.679145338136583E12	0.7301587301587301	1117.2161172161173	
1.679145338140489E12	0.7341547341547341	1133.3333333333333	
1.679145338144395E12	0.7581307581307581	1141.3919413919414	
1.6791453381483013E12	0.7390387390387391	1124.5421245421244	
1.6791453381522073E12	0.73992673992674	1123.8095238095236	
1.6791453381561133E12	0.7585747585747586	1109.89010989011	
1.6791453381600193E12	0.7718947718947718	1084.2490842490843	
1.6791453381639253E12	0.7306027306027304	1036.6300366300366	
1.6791453381678313E12	0.7292707292707292	1055.6776556776556	
1.6791453381717373E12	0.7448107448107448	1101.098901098901	
1.6791453381756433E12	0.7603507603507603	1120.8791208791208	
1.6791453381795493E12	0.7394827394827396	1131.8681318681317	
1.6791453381834553E12	0.7425907425907425	1160.4395604395604	
1.6791453381873613E12	0.7563547563547564	1173.6263736263736	
1.6791453381912673E12	0.7332667332667332	1153.113553113553	
1.6791453381951733E12	0.7306027306027304	1187.5457875457876	
1.6791453381990793E12	0.7323787323787323	1224.1758241758241	
1.6791453382029854E12	0.7474747474747476	1243.2234432234432	
1.6791453382068914E12	0.7576867576867576	1260.07326007326	
1.6791453382107974E12	0.7385947385947385	1265.9340659340658	
1.6791453382147034E12	0.7434787434787435	1284.2490842490843	
1.6791453382186096E12	0.7359307359307358	1280.5860805860805	
1.6791453382225156E12	0.7732267732267731	1326.007326007326	
1.6791453382264216E12	0.7306027306027304	1277.6556776556777	
1.6791453382303276E12	0.7288267288267287	1307.6923076923076	
1.6791453382342336E12	0.7545787545787547	1364.102564102564	
1.6791453382381396E12	0.759018759018759	1393.4065934065934	
1.6791453382420457E12	0.7479187479187479	1424.9084249084249	
1.6791453382459517E12	0.7408147408147409	1446.153846153846	
1.6791453382498577E12	0.7412587412587412	1447.6190476190475	
1.6791453382537637E12	0.7736707736707735	1479.8534798534797	
1.6791453382576697E12	0.7323787323787323	1421.9780219780218	
1.6791453382615757E12	0.7297147297147296	1444.6886446886447	
1.6791453382654817E12	0.7332667332667332	1478.3882783882782	
1.6791453382693877E12	0.7599067599067599	1538.4615384615383	
1.6791453382732937E12	0.7483627483627484	1538.4615384615383	
1.6791453382771997E12	0.7417027417027416	1517.9487179487178	
1.6791453382811057E12	0.7417027417027416	1506.9597069597069	
1.6791453382850117E12	0.7341547341547341	1517.9487179487178	
1.679145338288918E12	0.731046731046731	1542.8571428571427	
1.679145338292824E12	0.7332667332667332	1548.7179487179485	
1.67914533829673E12	0.759018759018759	1561.9047619047617	
1.679145338300636E12	0.763014763014763	1498.9010989010987	
1.679145338304542E12	0.7465867465867466	1464.4688644688645	
1.679145338308448E12	0.7425907425907425	1450.5494505494505	
1.679145338312354E12	0.7341547341547341	1453.4798534798533	
1.67914533831626E12	0.7337107337107337	1463.003663003663	
1.679145338320166E12	0.7345987345987345	1479.8534798534797	
1.679145338324072E12	0.735042735042735	1463.7362637362637	
1.679145338327978E12	0.7492507492507493	1445.4212454212454	
1.679145338331884E12	0.763014763014763	1418.3150183150183	
1.67914533833579E12	0.7456987456987457	1337.7289377289376	
1.679145338339696E12	0.7483627483627484	1282.051282051282	
1.679145338343602E12	0.743034743034743	1158.2417582417581	
1.679145338347508E12	0.7341547341547341	1066.6666666666665	
1.679145338351414E12	0.7377067377067377	1008.058608058608	
1.67914533835532E12	0.7341547341547341	947.2527472527472	
1.6791453383592263E12	0.7550227550227551	936.2637362637362	
1.6791453383631323E12	0.759018759018759	906.2271062271062	
1.6791453383670383E12	0.7390387390387391	959.7069597069597	
1.6791453383709443E12	0.7532467532467534	1109.89010989011	
1.6791453383748503E12	0.7403707403707404	1272.5274725274724	
1.6791453383787563E12	0.7381507381507381	1409.5238095238094	
1.6791453383826624E12	0.7301587301587301	1578.021978021978	
1.6791453383865684E12	0.7257187257187256	1752.3809523809523	
1.6791453383904744E12	0.73992673992674	1925.2747252747251	
1.6791453383943804E12	0.7550227550227551	2116.4835164835163	
1.6791453383982864E12	0.7536907536907537	2247.6190476190473	
1.6791453384021924E12	0.747030747030747	2343.5897435897436	
1.6791453384060984E12	0.7368187368187368	2383.8827838827838	
1.6791453384100044E12	0.7425907425907425	2476.190476190476	
1.6791453384139104E12	0.7297147297147296	2487.179487179487	
1.6791453384178164E12	0.7554667554667555	2596.336996336996	
1.6791453384217224E12	0.7465867465867466	2543.589743589743	
1.6791453384256284E12	0.7545787545787547	2550.18315018315	
1.6791453384295347E12	0.743034743034743	2550.915750915751	
1.6791453384334407E12	0.7581307581307581	2556.043956043956	
1.6791453384373467E12	0.7532467532467534	2501.098901098901	
1.6791453384412527E12	0.7323787323787323	2433.6996336996335	
1.6791453384451587E12	0.7323787323787323	2402.197802197802	
1.6791453384490647E12	0.7297147297147296	2353.846153846154	
1.6791453384529707E12	0.7421467421467423	2300.3663003663	
1.6791453384568767E12	0.7550227550227551	2290.842490842491	
1.6791453384607827E12	0.7394827394827396	2213.186813186813	
1.6791453384646887E12	0.747030747030747	2172.161172161172	
1.6791453384685947E12	0.7501387501387502	2085.714285714286	
1.6791453384725007E12	0.7306027306027304	2010.2564102564102	
1.6791453384764067E12	0.7306027306027304	1959.7069597069597	
1.6791453384803127E12	0.7283827283827283	1931.135531135531	
1.6791453384842188E12	0.7368187368187368	1919.4139194139193	
1.6791453384881248E12	0.7585747585747586	1946.5201465201465	
1.6791453384920308E12	0.7465867465867466	1857.142857142857	
1.6791453384959368E12	0.7372627372627372	1768.4981684981683	
1.679145338499843E12	0.7337107337107337	1711.3553113553112	
1.679145338503749E12	0.7314907314907314	1667.3992673992673	
1.679145338507655E12	0.7337107337107337	1612.4542124542124	
1.679145338511561E12	0.731046731046731	1547.2527472527472	
1.679145338515467E12	0.7456987456987457	1498.168498168498	
1.679145338519373E12	0.7603507603507603	1472.5274725274724	
1.679145338523279E12	0.7488067488067489	1377.2893772893772	
1.679145338527185E12	0.7394827394827396	1272.5274725274724	
1.679145338531091E12	0.7403707403707404	1201.4652014652013	
1.679145338534997E12	0.7323787323787323	1148.7179487179487	
1.679145338538903E12	0.7328227328227328	1097.4358974358975	
1.679145338542809E12	0.7301587301587301	1039.5604395604396	
1.679145338546715E12	0.7425907425907425	1032.967032967033	
1.679145338550621E12	0.755910755910756	1045.4212454212454	
1.679145338554527E12	0.7474747474747476	1046.1538461538462	
1.679145338558433E12	0.7412587412587412	1033.6996336996335	
1.679145338562339E12	0.7319347319347319	1082.7838827838827	
1.679145338566245E12	0.7279387279387278	1143.5897435897434	
1.6791453385701514E12	0.7328227328227328	1220.5128205128203	
1.6791453385740574E12	0.7354867354867355	1243.2234432234432	
1.6791453385779634E12	0.7385947385947385	1246.153846153846	
1.6791453385818694E12	0.7661227661227661	1249.084249084249	
1.6791453385857754E12	0.7545787545787547	1127.4725274725274	
1.6791453385896814E12	0.747030747030747	983.1501831501831	
1.6791453385935874E12	0.7403707403707404	909.1575091575091	
1.6791453385974934E12	0.7354867354867355	885.7142857142857	
1.6791453386013994E12	0.731046731046731	884.2490842490841	
1.6791453386053054E12	0.7306027306027304	868.8644688644688	
1.6791453386092114E12	0.7528027528027528	893.7728937728937	
1.6791453386131174E12	0.7576867576867576	920.1465201465201	
1.6791453386170234E12	0.7474747474747476	967.7655677655677	
1.6791453386209294E12	0.7448107448107448	1024.1758241758241	
1.6791453386248354E12	0.7412587412587412	1050.5494505494505	
1.6791453386287415E12	0.7714507714507713	1098.9010989010987	
1.6791453386326475E12	0.7297147297147296	1104.029304029304	
1.6791453386365535E12	0.7288267288267287	1183.8827838827838	
1.6791453386404597E12	0.7319347319347319	1282.7838827838827	
1.6791453386443657E12	0.7576867576867576	1393.4065934065934	
1.6791453386482717E12	0.7465867465867466	1463.003663003663	
1.6791453386521777E12	0.7408147408147409	1492.3076923076922	
1.6791453386560837E12	0.7412587412587412	1518.6813186813185	
1.6791453386599897E12	0.7328227328227328	1567.032967032967	
1.6791453386638958E12	0.7319347319347319	1589.0109890109889	
1.6791453386678018E12	0.7297147297147296	1608.7912087912086	
1.6791453386717078E12	0.7425907425907425	1654.212454212454	
1.6791453386756138E12	0.7572427572427574	1688.6446886446886	
1.6791453386795198E12	0.73992673992674	1710.6227106227104	
1.6791453386834258E12	0.7417027417027416	1742.124542124542	
1.6791453386873318E12	0.7363747363747363	1758.2417582417581	
1.6791453386912378E12	0.7332667332667332	1747.985347985348	
1.6791453386951438E12	0.7377067377067377	1731.135531135531	
1.6791453386990498E12	0.7394827394827396	1664.4688644688645	
1.6791453387029558E12	0.7505827505827507	1578.021978021978	
1.6791453387068618E12	0.7639027639027639	1485.7142857142856	
1.679145338710768E12	0.7474747474747476	1354.5787545787546	
1.679145338714674E12	0.7492507492507493	1171.4285714285713	
1.67914533871858E12	0.7377067377067377	1055.6776556776556	
1.679145338722486E12	0.7323787323787323	975.8241758241758	
1.679145338726392E12	0.7812187812187813	910.6227106227105	
1.679145338730298E12	0.7297147297147296	801.4652014652014	
1.679145338734204E12	0.7408147408147409	810.2564102564102	
1.67914533873811E12	0.7563547563547564	858.6080586080585	
1.679145338742016E12	0.7448107448107448	931.8681318681319	
1.679145338745922E12	0.7377067377067377	1000.7326007326006	
1.6791453387498281E12	0.7323787323787323	1082.7838827838827	
1.6791453387537341E12	0.7337107337107337	1193.4065934065934	
1.6791453387576401E12	0.7328227328227328	1293.040293040293	
1.6791453387615461E12	0.7306027306027304	1400.0	
1.6791453387654521E12	0.7421467421467423	1521.6117216117216	
1.6791453387693582E12	0.7576867576867576	1662.2710622710622	
1.6791453387732642E12	0.7417027417027416	1732.6007326007325	
1.6791453387771702E12	0.7456987456987457	1789.0109890109889	
1.6791453387810764E12	0.7599067599067599	1835.8974358974358	
1.6791453387849824E12	0.7345987345987345	1752.3809523809523	
1.6791453387888884E12	0.7332667332667332	1750.18315018315	
1.6791453387927944E12	0.7345987345987345	1723.0769230769229	
1.6791453387967004E12	0.7474747474747476	1680.5860805860805	
1.6791453388006064E12	0.7603507603507603	1632.9670329670328	
1.6791453388045125E12	0.755910755910756	1550.18315018315	
1.6791453388084185E12	0.7448107448107448	1473.9926739926739	
1.6791453388123245E12	0.7421467421467423	1461.5384615384614	
1.6791453388162305E12	0.7643467643467642	1510.6227106227104	
1.6791453388201365E12	0.7243867243867244	1558.974358974359	
1.6791453388240425E12	0.7257187257187256	1689.3772893772893	
1.6791453388279485E12	0.7385947385947385	1830.7692307692307	
1.6791453388318545E12	0.7536907536907537	1980.9523809523807	
1.6791453388357605E12	0.7514707514707515	2075.457875457875	
1.6791453388396665E12	0.7567987567987569	2194.871794871795	
1.6791453388435725E12	0.7434787434787435	2284.981684981685	
1.6791453388474785E12	0.7266067266067265	2303.296703296703	
1.6791453388513848E12	0.7274947274947274	2393.4065934065934	
1.6791453388552908E12	0.7297147297147296	2461.5384615384614	
1.6791453388591968E12	0.7323787323787323	2504.7619047619046	
1.6791453388631028E12	0.7634587634587635	2577.289377289377	
1.6791453388670088E12	0.7452547452547452	2495.238095238095	
1.6791453388709148E12	0.7496947496947497	2384.6153846153843	
1.6791453388748208E12	0.7616827616827617	2232.967032967033	
1.6791453388787268E12	0.7758907758907758	2037.3626373626373	
1.6791453388826328E12	0.7306027306027304	1775.8241758241757	
1.6791453388865388E12	0.7532467532467534	1676.1904761904761	
1.6791453388904448E12	0.73992673992674	1542.1245421245421	
1.6791453388943508E12	0.7536907536907537	1505.4945054945053	
1.6791453388982568E12	0.7448107448107448	1486.4468864468863	
1.6791453389021628E12	0.7408147408147409	1476.923076923077	
1.6791453389060688E12	0.7541347541347542	1496.7032967032967	
1.6791453389099749E12	0.7652347652347653	1453.4798534798533	
1.6791453389138809E12	0.7279387279387278	1399.2673992673992	
1.6791453389177869E12	0.7266067266067265	1434.4322344322343	
1.679145338921693E12	0.7425907425907425	1498.168498168498	
1.679145338925599E12	0.755910755910756	1545.054945054945	
1.6791453389295051E12	0.7448107448107448	1557.5091575091574	
1.6791453389334111E12	0.7377067377067377	1545.7875457875457	
1.6791453389373171E12	0.73992673992674	1549.4505494505493	
1.6791453389412231E12	0.7656787656787656	1608.058608058608	
1.6791453389451292E12	0.7301587301587301	1557.5091575091574	
1.6791453389490352E12	0.7288267288267287	1566.3003663003662	
1.6791453389529412E12	0.7341547341547341	1569.9633699633698	
1.6791453389568472E12	0.7652347652347653	1605.128205128205	
1.6791453389607532E12	0.7488067488067489	1531.8681318681317	
1.6791453389646592E12	0.7372627372627372	1451.2820512820513	
1.6791453389685652E12	0.7381507381507381	1400.7326007326005	
1.6791453389724712E12	0.7301587301587301	1381.6849816849815	
1.6791453389763772E12	0.7794427794427795	1434.4322344322343	
1.6791453389802832E12	0.731046731046731	1352.3809523809523	
1.6791453389841892E12	0.7439227439227439	1353.8461538461538	
1.6791453389880952E12	0.7576867576867576	1375.8241758241757	
1.6791453389920015E12	0.7492507492507493	1328.2051282051282	
1.6791453389959075E12	0.7372627372627372	1290.8424908424909	
1.6791453389998135E12	0.73992673992674	1283.5164835164835	
1.6791453390037195E12	0.7319347319347319	1287.9120879120878	
1.6791453390076255E12	0.7319347319347319	1273.9926739926739	
1.6791453390115315E12	0.7306027306027304	1253.4798534798533	
1.6791453390154375E12	0.7461427461427462	1253.4798534798533	
1.6791453390193435E12	0.7585747585747586	1257.8754578754579	
1.6791453390232495E12	0.7461427461427462	1249.8168498168498	
1.6791453390271555E12	0.7381507381507381	1230.03663003663	
1.6791453390310615E12	0.7385947385947385	1224.9084249084249	
1.6791453390349675E12	0.7345987345987345	1241.7582417582416	
1.6791453390388735E12	0.7319347319347319	1268.8644688644688	
1.6791453390427795E12	0.7319347319347319	1256.4102564102564	
1.6791453390466855E12	0.7332667332667332	1260.8058608058607	
1.6791453390505916E12	0.7603507603507603	1312.8205128205127	
1.6791453390544976E12	0.743034743034743	1290.8424908424909	
1.6791453390584036E12	0.7448107448107448	1280.5860805860805	
1.6791453390623098E12	0.7394827394827396	1233.6996336996335	
1.6791453390662158E12	0.7345987345987345	1165.5677655677655	
1.6791453390701218E12	0.7372627372627372	1106.227106227106	
1.6791453390740278E12	0.7363747363747363	956.7765567765567	
1.6791453390779338E12	0.7488067488067489	866.6666666666666	
1.6791453390818398E12	0.7616827616827617	802.1978021978022	
1.6791453390857458E12	0.7377067377067377	739.1941391941391	
1.6791453390896519E12	0.7488067488067489	718.6813186813187	
1.6791453390935579E12	0.73992673992674	668.131868131868	
1.6791453390974639E12	0.778998778998779	615.3846153846154	
1.6791453391013699E12	0.7803307803307804	504.7619047619047	
1.679145339105276E12	0.7266067266067265	454.2124542124542	
1.679145339109182E12	0.7385947385947385	522.3443223443223	
1.679145339113088E12	0.7541347541347542	646.8864468864468	
1.679145339116994E12	0.7465867465867466	773.6263736263736	
1.6791453391209E12	0.735042735042735	883.5164835164835	
1.679145339124806E12	0.743034743034743	1047.6190476190475	
1.679145339128712E12	0.7425907425907425	1178.021978021978	
1.6791453391326182E12	0.7301587301587301	1301.098901098901	
1.6791453391365242E12	0.7292707292707292	1431.5018315018315	
1.6791453391404302E12	0.7408147408147409	1599.2673992673992	
1.6791453391443362E12	0.7532467532467534	1768.4981684981683	
1.6791453391482422E12	0.7434787434787435	1891.5750915750914	
1.6791453391521482E12	0.7341547341547341	1997.8021978021977	
1.6791453391560542E12	0.7523587523587524	2126.007326007326	
1.6791453391599602E12	0.7314907314907314	2191.208791208791	
1.6791453391638662E12	0.7323787323787323	2276.190476190476	
1.6791453391677722E12	0.7274947274947274	2315.7509157509157	
1.6791453391716782E12	0.7421467421467423	2386.080586080586	
1.6791453391755842E12	0.7572427572427574	2440.29304029304	
1.6791453391794902E12	0.7536907536907537	2458.6080586080584	
1.6791453391833962E12	0.7354867354867355	2391.941391941392	
1.6791453391873022E12	0.7337107337107337	2385.3479853479853	
1.6791453391912083E12	0.7412587412587412	2419.047619047619	
1.6791453391951143E12	0.7323787323787323	2412.454212454212	
1.6791453391990205E12	0.7292707292707292	2391.941391941392	
1.6791453392029265E12	0.7408147408147409	2386.080586080586	
1.6791453392068325E12	0.7545787545787547	2405.128205128205	
1.6791453392107385E12	0.7359307359307358	2382.4175824175823	
1.6791453392146445E12	0.7425907425907425	2365.5677655677655	
1.6791453392185505E12	0.7345987345987345	2327.4725274725274	
1.6791453392224565E12	0.7337107337107337	2266.6666666666665	
1.6791453392263625E12	0.7337107337107337	2189.010989010989	
1.6791453392302686E12	0.7594627594627595	2099.6336996336995	
1.6791453392341746E12	0.7550227550227551	1872.5274725274724	
1.6791453392380806E12	0.7554667554667555	1734.7985347985348	
1.6791453392419866E12	0.735042735042735	1641.0256410256409	
1.6791453392458926E12	0.7403707403707404	1593.4065934065934	
1.6791453392497986E12	0.7345987345987345	1553.8461538461538	
1.6791453392537046E12	0.7403707403707404	1487.9120879120878	
1.6791453392576106E12	0.7514707514707515	1472.5274725274724	
1.6791453392615166E12	0.7274947274947274	1408.058608058608	
1.6791453392654226E12	0.7403707403707404	1416.117216117216	
1.6791453392693289E12	0.755910755910756	1453.4798534798533	
1.6791453392732349E12	0.7452547452547452	1404.3956043956043	
1.6791453392771409E12	0.7354867354867355	1382.4175824175823	
1.6791453392810469E12	0.7328227328227328	1381.6849816849815	
1.679145339284953E12	0.7652347652347653	1420.5128205128203	
1.679145339288859E12	0.7314907314907314	1356.7765567765566	
1.679145339292765E12	0.731046731046731	1334.7985347985348	
1.679145339296671E12	0.7456987456987457	1318.6813186813185	
1.679145339300577E12	0.7616827616827617	1309.1575091575091	
1.679145339304483E12	0.755910755910756	1219.7802197802198	
1.679145339308389E12	0.7359307359307358	1142.1245421245421	
1.679145339312295E12	0.7323787323787323	1115.018315018315	
1.679145339316201E12	0.7314907314907314	1109.1575091575091	
1.679145339320107E12	0.735042735042735	1108.4249084249084	
1.679145339324013E12	0.731046731046731	1089.3772893772893	
1.679145339327919E12	0.7434787434787435	1091.5750915750914	
1.679145339331825E12	0.7585747585747586	1113.5531135531135	
1.679145339335731E12	0.7483627483627484	1072.5274725274724	
1.6791453393396372E12	0.7408147408147409	1029.3040293040292	
1.6791453393435432E12	0.7337107337107337	992.6739926739926	
1.6791453393474492E12	0.7328227328227328	999.9999999999999	
1.6791453393513552E12	0.7297147297147296	1017.5824175824175	
1.6791453393552612E12	0.7581307581307581	1076.923076923077	
1.6791453393591672E12	0.7425907425907425	1035.8974358974358	
1.6791453393630732E12	0.7554667554667555	1080.5860805860805	
1.6791453393669792E12	0.7381507381507381	1123.8095238095236	
1.6791453393708853E12	0.7443667443667444	1184.6153846153845	
1.6791453393747913E12	0.7417027417027416	1187.5457875457876	
1.6791453393786973E12	0.7736707736707735	1237.3626373626373	
1.6791453393826033E12	0.7314907314907314	1207.3260073260074	
1.6791453393865093E12	0.7301587301587301	1199.2673992673992	
1.6791453393904153E12	0.7519147519147519	1219.7802197802198	
1.6791453393943213E12	0.7563547563547564	1239.5604395604396	
1.6791453393982273E12	0.7456987456987457	1293.7728937728937	
1.6791453394021333E12	0.7479187479187479	1335.5311355311355	
1.6791453394060393E12	0.7372627372627372	1336.263736263736	
1.6791453394099456E12	0.7297147297147296	1378.7545787545787	
1.6791453394138516E12	0.7301587301587301	1402.9304029304028	
1.6791453394177576E12	0.7301587301587301	1446.8864468864467	
1.6791453394216636E12	0.7328227328227328	1491.5750915750914	
1.6791453394255696E12	0.7612387612387612	1556.0439560439559	
1.6791453394294756E12	0.7434787434787435	1532.6007326007325	
1.6791453394333816E12	0.7492507492507493	1496.7032967032967	
1.6791453394372876E12	0.7408147408147409	1424.9084249084249	
1.6791453394411936E12	0.7354867354867355	1335.5311355311355	
1.6791453394450996E12	0.7372627372627372	1252.014652014652	
1.6791453394490056E12	0.7368187368187368	1136.9963369963368	
1.6791453394529116E12	0.7612387612387612	1016.117216117216	
1.6791453394568176E12	0.7612387612387612	859.3406593406593	
1.6791453394607236E12	0.7417027417027416	761.1721611721612	
1.6791453394646296E12	0.7479187479187479	721.6117216117216	
1.6791453394685356E12	0.7550227550227551	618.3150183150183	
1.6791453394724417E12	0.7314907314907314	557.5091575091575	
1.6791453394763477E12	0.727050727050727	594.8717948717948	
1.679145339480254E12	0.7257187257187256	704.029304029304	
1.67914533948416E12	0.7381507381507381	822.7106227106226	
1.679145339488066E12	0.7576867576867576	983.1501831501831	
1.679145339491972E12	0.7417027417027416	1139.194139194139	
1.679145339495878E12	0.7372627372627372	1275.4578754578754	
1.679145339499784E12	0.7368187368187368	1424.9084249084249	
1.67914533950369E12	0.7323787323787323	1575.091575091575	
1.679145339507596E12	0.7292707292707292	1701.8315018315018	
1.679145339511502E12	0.7576867576867576	1878.3882783882782	
1.679145339515408E12	0.7465867465867466	1857.142857142857	
1.679145339519314E12	0.7550227550227551	1943.5897435897434	
1.67914533952322E12	0.7372627372627372	1994.8717948717947	
1.679145339527126E12	0.7465867465867466	2064.4688644688645	
1.679145339531032E12	0.7381507381507381	2052.014652014652	
1.679145339534938E12	0.7314907314907314	2062.271062271062	
1.679145339538844E12	0.7314907314907314	2053.4798534798533	
1.67914533954275E12	0.7292707292707292	2043.956043956044	
1.679145339546656E12	0.7306027306027304	2032.234432234432	
1.6791453395505623E12	0.7576867576867576	2078.388278388278	
1.6791453395544683E12	0.759018759018759	2022.7106227106226	
1.6791453395583743E12	0.7394827394827396	1921.6117216117216	
1.6791453395622803E12	0.7385947385947385	1825.6410256410254	
1.6791453395661863E12	0.7328227328227328	1778.7545787545787	
1.6791453395700923E12	0.7314907314907314	1724.5421245421244	
1.6791453395739983E12	0.7292707292707292	1681.3186813186812	
1.6791453395779043E12	0.7421467421467423	1674.7252747252746	
1.6791453395818103E12	0.7576867576867576	1701.8315018315018	
1.6791453395857163E12	0.7461427461427462	1651.2820512820513	
1.6791453395896223E12	0.7381507381507381	1572.8937728937728	
1.6791453395935283E12	0.7377067377067377	1515.018315018315	
1.6791453395974343E12	0.7297147297147296	1470.3296703296703	
1.6791453396013403E12	0.7266067266067265	1454.9450549450548	
1.6791453396052463E12	0.7261627261627261	1484.2490842490843	
1.6791453396091523E12	0.7377067377067377	1539.9267399267399	
1.6791453396130583E12	0.7567987567987569	1591.9413919413919	
1.6791453396169644E12	0.7456987456987457	1627.8388278388277	
1.6791453396208706E12	0.7439227439227439	1635.164835164835	
1.6791453396247766E12	0.7523587523587524	1671.0622710622708	
1.6791453396286826E12	0.7323787323787323	1621.9780219780218	
1.6791453396325886E12	0.7288267288267287	1602.9304029304028	
1.6791453396364946E12	0.7283827283827283	1616.8498168498168	
1.6791453396404006E12	0.7337107337107337	1638.8278388278386	
1.6791453396443066E12	0.7572427572427574	1677.6556776556774	
1.6791453396482126E12	0.7448107448107448	1675.4578754578754	
1.6791453396521187E12	0.7394827394827396	1636.6300366300366	
1.6791453396560247E12	0.7385947385947385	1597.8021978021977	
1.6791453396599307E12	0.7345987345987345	1592.6739926739926	
1.6791453396638367E12	0.7306027306027304	1567.032967032967	
1.6791453396677427E12	0.7297147297147296	1523.8095238095236	
1.6791453396716487E12	0.7523587523587524	1515.018315018315	
1.6791453396755547E12	0.7581307581307581	1468.131868131868	
1.6791453396794607E12	0.7448107448107448	1452.014652014652	
1.6791453396833667E12	0.7381507381507381	1411.7216117216117	
1.6791453396872727E12	0.7354867354867355	1391.9413919413919	
1.679145339691179E12	0.7328227328227328	1407.3260073260071	
1.679145339695085E12	0.7301587301587301	1426.3736263736262	
1.679145339698991E12	0.731046731046731	1410.989010989011	
1.679145339702897E12	0.7523587523587524	1418.3150183150183	
1.679145339706803E12	0.755910755910756	1409.5238095238094	
1.679145339710709E12	0.7452547452547452	1412.4542124542124	
1.679145339714615E12	0.7488067488067489	1397.069597069597	
1.679145339718521E12	0.7519147519147519	1368.4981684981683	
1.679145339722427E12	0.7328227328227328	1340.6593406593406	
1.679145339726333E12	0.7754467754467754	1394.139194139194	
1.679145339730239E12	0.7279387279387278	1336.9963369963368	
1.679145339734145E12	0.7514707514707515	1373.6263736263736	
1.679145339738051E12	0.7550227550227551	1393.4065934065934	
1.679145339741957E12	0.7448107448107448	1430.7692307692307	
1.679145339745863E12	0.7421467421467423	1455.6776556776556	
1.679145339749769E12	0.7381507381507381	1454.9450549450548	
1.679145339753675E12	0.7670107670107669	1493.040293040293	
1.679145339757581E12	0.7328227328227328	1434.4322344322343	
1.6791453397614873E12	0.7279387279387278	1419.7802197802198	
1.6791453397653933E12	0.7381507381507381	1442.4908424908424	
1.6791453397692993E12	0.7541347541347542	1504.7619047619046	
1.6791453397732053E12	0.747030747030747	1523.8095238095236	
1.6791453397771113E12	0.7377067377067377	1515.018315018315	
1.6791453397810173E12	0.7332667332667332	1519.4139194139193	
1.6791453397849233E12	0.7306027306027304	1528.2051282051282	
1.6791453397888293E12	0.731046731046731	1547.985347985348	
1.6791453397927354E12	0.7332667332667332	1531.135531135531	
1.6791453397966414E12	0.7345987345987345	1501.098901098901	
1.6791453398005474E12	0.7634587634587635	1490.8424908424906	
1.6791453398044534E12	0.7452547452547452	1394.8717948717947	
1.6791453398083594E12	0.7417027417027416	1298.168498168498	
1.6791453398122654E12	0.73992673992674	1181.6849816849815	
1.6791453398161714E12	0.7381507381507381	1055.6776556776556	
1.6791453398200774E12	0.7363747363747363	947.985347985348	
1.6791453398239834E12	0.7354867354867355	827.106227106227	
1.6791453398278894E12	0.735042735042735	734.065934065934	
1.6791453398317957E12	0.7643467643467642	658.6080586080585	
1.6791453398357017E12	0.7479187479187479	515.7509157509157	
1.6791453398396077E12	0.7465867465867466	449.8168498168498	
1.6791453398435137E12	0.7363747363747363	405.86080586080584	
1.6791453398474197E12	0.7306027306027304	405.1282051282051	
1.6791453398513257E12	0.7341547341547341	435.16483516483515	
1.6791453398552317E12	0.7359307359307358	446.88644688644683	
1.6791453398591377E12	0.7354867354867355	479.12087912087907	
1.6791453398630437E12	0.7643467643467642	509.89010989010984	
1.6791453398669497E12	0.7528027528027528	476.9230769230769	
1.6791453398708557E12	0.7483627483627484	441.025641025641	
1.6791453398747617E12	0.7306027306027304	472.52747252747247	
1.6791453398786677E12	0.7257187257187256	600.0	
1.6791453398825737E12	0.7292707292707292	771.4285714285713	
1.6791453398864797E12	0.7186147186147186	920.1465201465201	
1.6791453398903857E12	0.7332667332667332	1083.5164835164835	
1.6791453398942917E12	0.7647907647907648	1230.7692307692307	
1.6791453398981978E12	0.747030747030747	1263.7362637362637	
1.679145339902104E12	0.7465867465867466	1298.9010989010987	
1.67914533990601E12	0.7341547341547341	1350.9157509157508	
1.679145339909916E12	0.7337107337107337	1405.128205128205	
1.679145339913822E12	0.7781107781107781	1455.6776556776556	
1.679145339917728E12	0.7528027528027528	1448.3516483516482	
1.679145339921634E12	0.7448107448107448	1476.1904761904761	
1.67914533992554E12	0.7443667443667444	1645.4212454212452	
1.679145339929446E12	0.735042735042735	1880.5860805860805	
1.679145339933352E12	0.7372627372627372	2094.5054945054944	
1.679145339937258E12	0.7297147297147296	2311.355311355311	
1.679145339941164E12	0.7390387390387391	2457.875457875458	
1.67914533994507E12	0.7266067266067265	2574.358974358974	
1.679145339948976E12	0.7252747252747253	2700.3663003663	
1.679145339952882E12	0.7283827283827283	2795.6043956043954	
1.679145339956788E12	0.7572427572427574	2933.333333333333	
1.679145339960694E12	0.7456987456987457	2955.3113553113553	
1.6791453399646E12	0.7385947385947385	2901.8315018315016	
1.679145339968506E12	0.7372627372627372	2835.164835164835	
1.6791453399724124E12	0.7306027306027304	2774.358974358974	
1.6791453399763184E12	0.7359307359307358	2710.6227106227107	
1.6791453399802244E12	0.7301587301587301	2583.8827838827838	
1.6791453399841304E12	0.7394827394827396	2485.7142857142853	
1.6791453399880364E12	0.7528027528027528	2449.0842490842488	
1.6791453399919424E12	0.7417027417027416	2361.904761904762	
1.6791453399958484E12	0.7354867354867355	2282.7838827838827	
1.6791453399997544E12	0.7443667443667444	2273.9926739926736	
1.6791453400036604E12	0.7665667665667666	2219.047619047619	
1.6791453400075664E12	0.7261627261627261	2107.6923076923076	
1.6791453400114724E12	0.7257187257187256	2063.7362637362635	
1.6791453400153784E12	0.7381507381507381	2063.7362637362635	
1.6791453400192844E12	0.7545787545787547	2072.5274725274726	
1.6791453400231904E12	0.7408147408147409	2041.0256410256409	
1.6791453400270964E12	0.7545787545787547	2049.0842490842488	
1.6791453400310024E12	0.7279387279387278	1976.5567765567764	
1.6791453400349084E12	0.7297147297147296	1985.3479853479853	
1.6791453400388145E12	0.7319347319347319	1989.7435897435896	
1.6791453400427207E12	0.7279387279387278	1969.9633699633698	
1.6791453400466267E12	0.7385947385947385	1961.172161172161	
1.6791453400505327E12	0.7514707514707515	1972.161172161172	
1.6791453400544387E12	0.7479187479187479	1939.9267399267399	
1.6791453400583447E12	0.7439227439227439	1938.4615384615383	
1.6791453400622507E12	0.7283827283827283	1892.3076923076922	
1.6791453400661567E12	0.7248307248307249	1905.4945054945053	
1.6791453400700627E12	0.7261627261627261	1941.3919413919414	
1.6791453400739688E12	0.7567987567987569	2022.7106227106226	
1.6791453400778748E12	0.7514707514707515	1900.3663003663003	
1.6791453400817808E12	0.7523587523587524	1869.5970695970695	
1.6791453400856868E12	0.7403707403707404	1867.3992673992673	
1.6791453400895928E12	0.7394827394827396	1842.4908424908424	
1.6791453400934988E12	0.7319347319347319	1827.8388278388277	
1.6791453400974048E12	0.7314907314907314	1803.6630036630036	
1.6791453401013108E12	0.778998778998779	1841.7582417582416	
1.6791453401052168E12	0.755910755910756	1677.6556776556774	
1.6791453401091228E12	0.7412587412587412	1501.8315018315018	
1.679145340113029E12	0.7510267510267511	1464.4688644688645	
1.679145340116935E12	0.7354867354867355	1444.6886446886447	
1.679145340120841E12	0.7443667443667444	1458.6080586080584	
1.679145340124747E12	0.7345987345987345	1409.5238095238094	
1.679145340128653E12	0.7283827283827283	1400.7326007326005	
1.679145340132559E12	0.7292707292707292	1370.6959706959706	
1.679145340136465E12	0.7288267288267287	1356.0439560439559	
1.679145340140371E12	0.7403707403707404	1354.5787545787546	
1.679145340144277E12	0.755910755910756	1362.6373626373625	
1.679145340148183E12	0.7377067377067377	1309.89010989011	
1.679145340152089E12	0.7439227439227439	1285.7142857142856	
1.679145340155995E12	0.7359307359307358	1241.0256410256409	
1.6791453401599011E12	0.7319347319347319	1188.278388278388	
1.6791453401638071E12	0.7345987345987345	1135.5311355311355	
1.6791453401677131E12	0.735042735042735	1046.8864468864467	
1.6791453401716191E12	0.7354867354867355	946.5201465201465	
1.6791453401755251E12	0.7683427683427683	819.047619047619	
1.6791453401794312E12	0.7439227439227439	675.4578754578754	
1.6791453401833374E12	0.7443667443667444	566.3003663003662	
1.6791453401872434E12	0.735042735042735	490.1098901098901	
1.6791453401911494E12	0.7332667332667332	432.23443223443223	
1.6791453401950554E12	0.7812187812187813	411.7216117216117	
1.6791453401989614E12	0.7319347319347319	303.2967032967033	
1.6791453402028674E12	0.7385947385947385	269.5970695970696	
1.6791453402067734E12	0.7501387501387502	304.76190476190476	
1.6791453402106794E12	0.7394827394827396	413.18681318681314	
1.6791453402145854E12	0.7359307359307358	533.3333333333333	
1.6791453402184915E12	0.7345987345987345	682.051282051282	
1.6791453402223975E12	0.731046731046731	849.8168498168498	
1.6791453402263035E12	0.7274947274947274	1025.6410256410256	
1.6791453402302095E12	0.7283827283827283	1152.3809523809523	
1.6791453402341155E12	0.7514707514707515	1280.5860805860805	
1.6791453402380215E12	0.7541347541347542	1397.069597069597	
1.6791453402419275E12	0.7425907425907425	1525.2747252747251	
1.6791453402458335E12	0.7412587412587412	1621.245421245421	
1.6791453402497395E12	0.7319347319347319	1720.8791208791208	
1.6791453402536458E12	0.7385947385947385	1747.985347985348	
1.6791453402575518E12	0.7297147297147296	1802.197802197802	
1.6791453402614578E12	0.7283827283827283	1853.4798534798533	
1.6791453402653638E12	0.7385947385947385	1889.3772893772893	
1.6791453402692698E12	0.7519147519147519	1945.7875457875457	
1.6791453402731758E12	0.7412587412587412	1970.6959706959706	
1.6791453402770818E12	0.7550227550227551	2028.5714285714284	
1.6791453402809878E12	0.7328227328227328	2014.6520146520145	
1.6791453402848938E12	0.7288267288267287	2079.8534798534797	
1.6791453402887998E12	0.7279387279387278	2115.0183150183148	
1.6791453402927058E12	0.7257187257187256	2150.1831501831502	
1.6791453402966118E12	0.7377067377067377	2202.197802197802	
1.6791453403005178E12	0.7536907536907537	2260.07326007326	
1.6791453403044238E12	0.743034743034743	2263.7362637362635	
1.6791453403083298E12	0.7319347319347319	2248.3516483516482	
1.6791453403122358E12	0.7479187479187479	2273.260073260073	
1.6791453403161418E12	0.7394827394827396	2235.8974358974356	
1.679145340320048E12	0.727050727050727	2210.9890109890107	
1.679145340323954E12	0.7203907203907204	2202.9304029304026	
1.67914534032786E12	0.7332667332667332	2257.875457875458	
1.679145340331766E12	0.7505827505827507	2334.7985347985345	
1.679145340335672E12	0.73992673992674	2356.043956043956	
1.6791453403395781E12	0.7323787323787323	2360.4395604395604	
1.6791453403434841E12	0.7274947274947274	2339.9267399267396	
1.6791453403473901E12	0.7279387279387278	2358.241758241758	
1.6791453403512961E12	0.7266067266067265	2342.8571428571427	
1.6791453403552021E12	0.7283827283827283	2312.0879120879117	
1.6791453403591082E12	0.7368187368187368	2269.5970695970695	
1.6791453403630142E12	0.755910755910756	2247.6190476190473	
1.6791453403669202E12	0.7385947385947385	2203.6630036630036	
1.6791453403708262E12	0.7328227328227328	2153.846153846154	
1.6791453403747322E12	0.7301587301587301	2109.8901098901097	
1.6791453403786382E12	0.7372627372627372	2027.106227106227	
1.6791453403825442E12	0.727050727050727	1962.6373626373625	
1.6791453403864502E12	0.7257187257187256	1909.1575091575091	
1.6791453403903564E12	0.7261627261627261	1854.212454212454	
1.6791453403942625E12	0.755910755910756	1813.186813186813	
1.6791453403981685E12	0.7448107448107448	1715.7509157509157	
1.6791453404020745E12	0.7465867465867466	1606.5934065934066	
1.6791453404059805E12	0.735042735042735	1471.062271062271	
1.6791453404098865E12	0.7283827283827283	1383.8827838827838	
1.6791453404137925E12	0.7288267288267287	1307.6923076923076	
1.6791453404176985E12	0.755910755910756	1250.5494505494505	
1.6791453404216045E12	0.7319347319347319	1123.8095238095236	
1.6791453404255105E12	0.7532467532467534	1101.098901098901	
1.6791453404294165E12	0.7363747363747363	1061.5384615384614	
1.6791453404333225E12	0.7372627372627372	1009.5238095238094	
1.6791453404372285E12	0.7354867354867355	955.3113553113552	
1.6791453404411345E12	0.7292707292707292	928.2051282051282	
1.6791453404450405E12	0.727050727050727	898.9010989010989	
1.6791453404489465E12	0.7528027528027528	901.098901098901	
1.6791453404528525E12	0.7359307359307358	871.7948717948717	
1.6791453404567585E12	0.7528027528027528	922.3443223443223	
1.6791453404606648E12	0.7377067377067377	971.4285714285713	
1.6791453404645708E12	0.7372627372627372	1008.058608058608	
1.6791453404684768E12	0.7345987345987345	1035.164835164835	
1.6791453404723828E12	0.7332667332667332	1071.7948717948718	
1.6791453404762888E12	0.7301587301587301	1113.5531135531135	
1.6791453404801948E12	0.7297147297147296	1111.3553113553112	
1.6791453404841008E12	0.7283827283827283	1117.9487179487178	
1.6791453404880068E12	0.7567987567987569	1163.3699633699632	
1.6791453404919128E12	0.7434787434787435	1134.065934065934	
1.6791453404958188E12	0.7452547452547452	1093.7728937728937	
1.6791453404997249E12	0.7390387390387391	1030.7692307692307	
1.6791453405036309E12	0.7359307359307358	942.124542124542	
1.6791453405075369E12	0.7341547341547341	849.8168498168498	
1.6791453405114429E12	0.7612387612387612	746.5201465201465	
1.6791453405153489E12	0.7403707403707404	572.8937728937728	
1.679145340519255E12	0.7536907536907537	541.3919413919414	
1.679145340523161E12	0.7332667332667332	548.7179487179487	
1.679145340527067E12	0.7403707403707404	610.9890109890109	
1.6791453405309731E12	0.7341547341547341	657.1428571428571	
1.6791453405348792E12	0.7337107337107337	700.3663003663003	
1.6791453405387852E12	0.7337107337107337	745.054945054945	
1.6791453405426912E12	0.7314907314907314	712.8205128205128	
1.6791453405465972E12	0.7306027306027304	723.076923076923	
1.6791453405505032E12	0.7576867576867576	781.6849816849816	
1.6791453405544092E12	0.7412587412587412	816.1172161172161	
1.6791453405583152E12	0.7448107448107448	850.5494505494505	
1.6791453405622212E12	0.7354867354867355	877.6556776556776	
1.6791453405661272E12	0.7323787323787323	907.6923076923076	
1.6791453405700332E12	0.7314907314907314	890.8424908424907	
1.6791453405739392E12	0.7301587301587301	910.6227106227105	
1.6791453405778452E12	0.7528027528027528	947.985347985348	
1.6791453405817512E12	0.755910755910756	947.985347985348	
1.6791453405856572E12	0.7354867354867355	1021.978021978022	
1.6791453405895632E12	0.7279387279387278	1180.952380952381	
1.6791453405934692E12	0.7252747252747253	1358.2417582417581	
1.6791453405973752E12	0.7274947274947274	1576.5567765567764	
1.6791453406012815E12	0.7243867243867244	1755.311355311355	
1.6791453406051875E12	0.7226107226107225	1936.263736263736	
1.6791453406090935E12	0.7337107337107337	2128.937728937729	
1.6791453406129995E12	0.7519147519147519	2304.7619047619046	
1.6791453406169055E12	0.7368187368187368	2424.175824175824	
1.6791453406208115E12	0.755910755910756	2547.9853479853477	
1.6791453406247175E12	0.7292707292707292	2532.6007326007325	
1.6791453406286235E12	0.7292707292707292	2589.010989010989	
1.6791453406325295E12	0.7314907314907314	2610.9890109890107	
1.6791453406364355E12	0.7257187257187256	2589.7435897435894	
1.6791453406403416E12	0.7363747363747363	2606.5934065934066	
1.6791453406442476E12	0.7496947496947497	2623.4432234432234	
1.6791453406481536E12	0.7465867465867466	2579.487179487179	
1.6791453406520596E12	0.7328227328227328	2550.18315018315	
1.6791453406559656E12	0.7283827283827283	2495.238095238095	
1.6791453406598716E12	0.7297147297147296	2490.842490842491	
1.6791453406637776E12	0.7714507714507713	2550.915750915751	
1.6791453406676836E12	0.7239427239427239	2416.117216117216	
1.6791453406715898E12	0.7359307359307358	2395.6043956043954	
1.6791453406754958E12	0.7519147519147519	2396.336996336996	
1.6791453406794019E12	0.7421467421467423	2356.043956043956	
1.6791453406833079E12	0.7332667332667332	2268.131868131868	
1.6791453406872139E12	0.7274947274947274	2193.4065934065934	
1.6791453406911199E12	0.7616827616827617	2198.5347985347985	
1.679145340695026E12	0.7274947274947274	2082.7838827838827	
1.679145340698932E12	0.7234987234987235	2053.4798534798533	
1.679145340702838E12	0.7337107337107337	2038.8278388278386	
1.679145340706744E12	0.7501387501387502	2049.0842490842488	
1.67914534071065E12	0.7394827394827396	2019.7802197802196	
1.679145340714556E12	0.7545787545787547	2004.3956043956043	
1.679145340718462E12	0.7279387279387278	1923.0769230769229	
1.679145340722368E12	0.7297147297147296	1909.1575091575091	
1.679145340726274E12	0.7297147297147296	1881.3186813186812	
1.67914534073018E12	0.7536907536907537	1904.7619047619046	
1.679145340734086E12	0.7394827394827396	1784.6153846153845	
1.679145340737992E12	0.7501387501387502	1777.2893772893772	
1.6791453407418982E12	0.7403707403707404	1753.113553113553	
1.6791453407458042E12	0.7332667332667332	1712.087912087912	
1.6791453407497102E12	0.7288267288267287	1715.7509157509157	
1.6791453407536162E12	0.7288267288267287	1696.7032967032967	
1.6791453407575222E12	0.7301587301587301	1686.4468864468863	
1.6791453407614282E12	0.7314907314907314	1627.106227106227	
1.6791453407653342E12	0.7301587301587301	1542.8571428571427	
1.6791453407692402E12	0.7594627594627595	1480.5860805860805	
1.6791453407731462E12	0.7448107448107448	1327.4725274725274	
1.6791453407770522E12	0.7474747474747476	1159.7069597069597	
1.6791453407809583E12	0.7368187368187368	991.2087912087911	
1.6791453407848643E12	0.7332667332667332	828.5714285714286	
1.6791453407887703E12	0.7332667332667332	693.7728937728938	
1.6791453407926763E12	0.7341547341547341	542.1245421245421	
1.6791453407965823E12	0.7425907425907425	365.56776556776555	
1.6791453408004883E12	0.7594627594627595	219.04761904761904	
1.6791453408043943E12	0.7345987345987345	126.73992673992673	
1.6791453408083003E12	0.7328227328227328	87.91208791208791	
1.6791453408122065E12	0.7434787434787435	131.86813186813185	
1.6791453408161125E12	0.7261627261627261	241.02564102564102	
1.6791453408200186E12	0.7687867687867688	416.8498168498168	
1.6791453408239246E12	0.7221667221667222	563.3699633699633	
1.6791453408278306E12	0.7332667332667332	764.1025641025641	
1.6791453408317366E12	0.7510267510267511	973.6263736263736	
1.6791453408356426E12	0.7456987456987457	1124.5421245421244	
1.6791453408395486E12	0.7341547341547341	1258.6080586080586	
1.6791453408434546E12	0.7323787323787323	1392.6739926739926	
1.6791453408473606E12	0.7266067266067265	1534.7985347985348	
1.6791453408512666E12	0.7283827283827283	1632.9670329670328	
1.6791453408551726E12	0.7274947274947274	1704.0293040293038	
1.6791453408590786E12	0.7377067377067377	1783.8827838827838	
1.6791453408629846E12	0.7528027528027528	1849.084249084249	
1.6791453408668906E12	0.7354867354867355	1883.5164835164833	
1.6791453408707966E12	0.7408147408147409	1903.296703296703	
1.6791453408747026E12	0.7319347319347319	1895.970695970696	
1.6791453408786086E12	0.7323787323787323	1898.9010989010987	
1.679145340882515E12	0.7261627261627261	1855.6776556776556	
1.679145340886421E12	0.7252747252747253	1855.6776556776556	
1.679145340890327E12	0.727050727050727	1851.2820512820513	
1.679145340894233E12	0.7572427572427574	1895.970695970696	
1.679145340898139E12	0.7417027417027416	1846.8864468864467	
1.679145340902045E12	0.7448107448107448	1778.7545787545787	
1.679145340905951E12	0.7363747363747363	1682.051282051282	
1.679145340909857E12	0.7314907314907314	1561.1721611721612	
1.679145340913763E12	0.7816627816627817	1505.4945054945053	
1.679145340917669E12	0.7319347319347319	1260.8058608058607	
1.679145340921575E12	0.7337107337107337	1124.5421245421244	
1.679145340925481E12	0.7567987567987569	1046.1538461538462	
1.679145340929387E12	0.7408147408147409	949.4505494505494	
1.679145340933293E12	0.7439227439227439	871.062271062271	
1.679145340937199E12	0.7545787545787547	786.080586080586	
1.679145340941105E12	0.7674547674547674	660.07326007326	
1.679145340945011E12	0.7279387279387278	587.5457875457876	
1.679145340948917E12	0.7208347208347209	630.7692307692307	
1.6791453409528232E12	0.7328227328227328	723.076923076923	
1.6791453409567292E12	0.7488067488067489	863.7362637362637	
1.6791453409606353E12	0.7452547452547452	999.2673992673992	
1.6791453409645413E12	0.7505827505827507	1159.7069597069597	
1.6791453409684473E12	0.7279387279387278	1287.179487179487	
1.6791453409723533E12	0.7607947607947607	1495.970695970696	
1.6791453409762593E12	0.7234987234987235	1622.7106227106226	
1.6791453409801653E12	0.7248307248307249	1797.8021978021977	
1.6791453409840713E12	0.7341547341547341	1949.4505494505493	
1.6791453409879773E12	0.7479187479187479	2100.3663003663	
1.6791453409918833E12	0.7452547452547452	2194.871794871795	
1.6791453409957893E12	0.7403707403707404	2296.7032967032965	
1.6791453409996953E12	0.7421467421467423	2376.556776556776	
1.6791453410036013E12	0.7243867243867244	2398.5347985347985	
1.6791453410075073E12	0.7217227217227218	2477.6556776556777	
1.6791453410114133E12	0.7230547230547231	2528.205128205128	
1.6791453410153193E12	0.7341547341547341	2587.5457875457873	
1.6791453410192253E12	0.755910755910756	2670.32967032967	
1.6791453410231316E12	0.7390387390387391	2669.5970695970695	
1.6791453410270376E12	0.7412587412587412	2638.095238095238	
1.6791453410309436E12	0.7443667443667444	2591.208791208791	
1.6791453410348496E12	0.7288267288267287	2513.5531135531132	
1.6791453410387556E12	0.7252747252747253	2457.142857142857	
1.6791453410426616E12	0.7239427239427239	2410.25641025641	
1.6791453410465676E12	0.7341547341547341	2341.391941391941	
1.6791453410504736E12	0.7514707514707515	2311.355311355311	
1.6791453410543796E12	0.7425907425907425	2218.3150183150183	
1.6791453410582856E12	0.735042735042735	2092.3076923076924	
1.6791453410621917E12	0.731046731046731	1981.6849816849815	
1.6791453410660977E12	0.7261627261627261	1906.227106227106	
1.6791453410700037E12	0.774114774114774	1924.5421245421244	
1.6791453410739097E12	0.73992673992674	1748.7179487179485	
1.6791453410778157E12	0.7385947385947385	1616.8498168498168	
1.6791453410817217E12	0.7519147519147519	1520.14652014652	
1.6791453410856277E12	0.735042735042735	1422.7106227106226	
1.6791453410895337E12	0.7394827394827396	1340.6593406593406	
1.67914534109344E12	0.7492507492507493	1262.2710622710622	
1.679145341097346E12	0.731046731046731	1158.2417582417581	
1.679145341101252E12	0.7261627261627261	1105.4945054945053	
1.679145341105158E12	0.7261627261627261	1074.7252747252746	
1.679145341109064E12	0.7261627261627261	1054.212454212454	
1.67914534111297E12	0.7550227550227551	1034.4322344322343	
1.679145341116876E12	0.7456987456987457	975.091575091575	
1.679145341120782E12	0.7417027417027416	912.8205128205127	
1.679145341124688E12	0.7314907314907314	876.9230769230769	
1.679145341128594E12	0.7292707292707292	852.0146520146519	
1.6791453411325E12	0.7306027306027304	833.6996336996336	
1.679145341136406E12	0.7323787323787323	792.6739926739926	
1.679145341140312E12	0.7421467421467423	748.7179487179486	
1.679145341144218E12	0.7616827616827617	676.1904761904761	
1.679145341148124E12	0.7443667443667444	551.6483516483516	
1.67914534115203E12	0.7368187368187368	474.7252747252747	
1.679145341155936E12	0.7288267288267287	448.3516483516483	
1.679145341159842E12	0.7288267288267287	487.1794871794871	
1.6791453411637483E12	0.7266067266067265	537.7289377289377	
1.6791453411676543E12	0.7234987234987235	622.7106227106227	
1.6791453411715603E12	0.735042735042735	731.8681318681319	
1.6791453411754663E12	0.7523587523587524	870.3296703296703	
1.6791453411793723E12	0.743034743034743	959.7069597069597	
1.6791453411832783E12	0.7354867354867355	1024.9084249084249	
1.6791453411871843E12	0.731046731046731	1106.227106227106	
1.6791453411910903E12	0.7306027306027304	1207.3260073260074	
1.6791453411949963E12	0.727050727050727	1291.5750915750914	
1.6791453411989023E12	0.727050727050727	1350.9157509157508	
1.6791453412028083E12	0.7479187479187479	1419.7802197802198	
1.6791453412067144E12	0.7474747474747476	1454.9450549450548	
1.6791453412106204E12	0.73992673992674	1547.985347985348	
1.6791453412145264E12	0.7332667332667332	1594.8717948717947	
1.6791453412184324E12	0.7301587301587301	1659.3406593406592	
1.6791453412223384E12	0.7261627261627261	1728.2051282051282	
1.6791453412262444E12	0.7723387723387722	1882.051282051282	
1.6791453412301504E12	0.7257187257187256	1781.6849816849815	
1.6791453412340566E12	0.7345987345987345	1783.8827838827838	
1.6791453412379626E12	0.7483627483627484	1839.5604395604394	
1.6791453412418687E12	0.7332667332667332	1872.5274725274724	
1.6791453412457747E12	0.7319347319347319	1893.7728937728937	
1.6791453412496807E12	0.727050727050727	1912.087912087912	
1.6791453412535867E12	0.7266067266067265	1939.194139194139	
1.6791453412574927E12	0.7274947274947274	1967.032967032967	
1.6791453412613987E12	0.7279387279387278	1962.6373626373625	
1.6791453412653047E12	0.7274947274947274	1926.7399267399267	
1.6791453412692107E12	0.7572427572427574	1933.3333333333333	
1.6791453412731167E12	0.7425907425907425	1831.5018315018315	
1.6791453412770227E12	0.7439227439227439	1703.296703296703	
1.6791453412809287E12	0.7541347541347542	1561.1721611721612	
1.6791453412848347E12	0.7297147297147296	1362.6373626373625	
1.6791453412887407E12	0.7283827283827283	1255.6776556776556	
1.6791453412926467E12	0.7297147297147296	1144.3223443223442	
1.6791453412965527E12	0.7403707403707404	1052.7472527472528	
1.6791453413004587E12	0.7612387612387612	964.1025641025641	
1.679145341304365E12	0.747030747030747	797.069597069597	
1.679145341308271E12	0.7354867354867355	723.8095238095237	
1.679145341312177E12	0.7297147297147296	717.9487179487179	
1.679145341316083E12	0.7261627261627261	751.6483516483516	
1.679145341319989E12	0.7261627261627261	789.010989010989	
1.679145341323895E12	0.7234987234987235	838.8278388278387	
1.679145341327801E12	0.7332667332667332	928.9377289377288	
1.679145341331707E12	0.7505827505827507	1041.7582417582416	
1.679145341335613E12	0.7381507381507381	1134.065934065934	
1.679145341339519E12	0.73992673992674	1211.7216117216117	
1.679145341343425E12	0.7337107337107337	1257.142857142857	
1.679145341347331E12	0.7314907314907314	1273.260073260073	
1.679145341351237E12	0.7781107781107781	1317.9487179487178	
1.679145341355143E12	0.759018759018759	1243.956043956044	
1.679145341359049E12	0.7354867354867355	1139.194139194139	
1.679145341362955E12	0.7483627483627484	1157.5091575091574	
1.679145341366861E12	0.73992673992674	1219.7802197802198	
1.679145341370767E12	0.7354867354867355	1271.7948717948716	
1.6791453413746733E12	0.731046731046731	1320.8791208791208	
1.6791453413785793E12	0.7639027639027639	1419.7802197802198	
1.6791453413824854E12	0.7261627261627261	1430.03663003663	
1.6791453413863914E12	0.7230547230547231	1501.8315018315018	
1.6791453413902974E12	0.735042735042735	1581.6849816849815	
1.6791453413942034E12	0.7532467532467534	1660.07326007326	
1.6791453413981094E12	0.7439227439227439	1717.9487179487178	
1.6791453414020154E12	0.7359307359307358	1714.2857142857142	
1.6791453414059214E12	0.7456987456987457	1757.5091575091574	
1.6791453414098274E12	0.7359307359307358	1764.102564102564	
1.6791453414137334E12	0.7248307248307249	1793.4065934065932	
1.6791453414176394E12	0.7252747252747253	1852.0146520146518	
1.6791453414215454E12	0.7452547452547452	1932.6007326007325	
1.6791453414254514E12	0.7456987456987457	1988.278388278388	
1.6791453414293574E12	0.7390387390387391	2060.07326007326	
1.6791453414332634E12	0.7328227328227328	2106.9597069597066	
1.6791453414371694E12	0.7274947274947274	2130.4029304029305	
1.6791453414410754E12	0.7274947274947274	2189.010989010989	
1.6791453414449817E12	0.7687867687867688	2304.029304029304	
1.6791453414488877E12	0.7341547341547341	2268.8644688644686	
1.6791453414527937E12	0.7443667443667444	2266.6666666666665	
1.6791453414566997E12	0.7461427461427462	2289.3772893772893	
1.6791453414606057E12	0.7394827394827396	2339.9267399267396	
1.6791453414645117E12	0.7501387501387502	2357.5091575091574	
1.6791453414684177E12	0.7443667443667444	2377.289377289377	
1.6791453414723237E12	0.735042735042735	2321.6117216117214	
1.6791453414762297E12	0.7683427683427683	2388.2783882783883	
1.6791453414801357E12	0.7208347208347209	2279.8534798534797	
1.6791453414840417E12	0.7306027306027304	2286.4468864468863	
1.6791453414879478E12	0.7452547452547452	2308.424908424908	
1.6791453414918538E12	0.7439227439227439	2284.981684981685	
1.6791453414957598E12	0.73992673992674	2239.5604395604396	
1.6791453414996658E12	0.7394827394827396	2184.6153846153843	
1.6791453415035718E12	0.7243867243867244	2147.252747252747	
1.6791453415074778E12	0.7656787656787656	2225.6410256410254	
1.679145341511384E12	0.7217227217227218	2118.6813186813183	
1.67914534151529E12	0.7319347319347319	2117.948717948718	
1.679145341519196E12	0.7501387501387502	2139.9267399267396	
1.679145341523102E12	0.7425907425907425	2079.120879120879	
1.679145341527008E12	0.7328227328227328	1969.230769230769	
1.679145341530914E12	0.7279387279387278	1857.8754578754576	
1.67914534153482E12	0.7301587301587301	1794.8717948717947	
1.679145341538726E12	0.7288267288267287	1705.4945054945053	
1.679145341542632E12	0.7234987234987235	1614.6520146520145	
1.679145341546538E12	0.7328227328227328	1549.4505494505493	
1.679145341550444E12	0.7505827505827507	1523.0769230769229	
1.67914534155435E12	0.7448107448107448	1425.6410256410256	
1.679145341558256E12	0.7372627372627372	1305.4945054945053	
1.679145341562162E12	0.7292707292707292	1200.0	
1.679145341566068E12	0.7297147297147296	1137.7289377289376	
1.679145341569974E12	0.7257187257187256	1073.9926739926739	
1.6791453415738801E12	0.7261627261627261	993.4065934065933	
1.6791453415777861E12	0.7479187479187479	942.124542124542	
1.6791453415816924E12	0.7479187479187479	894.5054945054944	
1.6791453415855984E12	0.7417027417027416	895.9706959706959	
1.6791453415895044E12	0.735042735042735	893.040293040293	
1.6791453415934104E12	0.7301587301587301	880.5860805860805	
1.6791453415973164E12	0.7634587634587635	908.4249084249084	
1.6791453416012224E12	0.7252747252747253	882.051282051282	
1.6791453416051284E12	0.7226107226107225	908.4249084249084	
1.6791453416090344E12	0.7248307248307249	945.0549450549449	
1.6791453416129404E12	0.7523587523587524	989.7435897435897	
1.6791453416168464E12	0.7381507381507381	1016.117216117216	
1.6791453416207524E12	0.7390387390387391	1027.106227106227	
1.6791453416246584E12	0.731046731046731	1041.0256410256409	
1.6791453416285645E12	0.7288267288267287	1044.6886446886447	
1.6791453416324705E12	0.7297147297147296	1043.956043956044	
1.6791453416363765E12	0.7314907314907314	1017.5824175824175	
1.6791453416402825E12	0.7283827283827283	975.091575091575	
1.6791453416441885E12	0.755910755910756	948.7179487179486	
1.6791453416480945E12	0.7425907425907425	872.5274725274725	
1.6791453416520007E12	0.7505827505827507	768.4981684981684	
1.6791453416559067E12	0.7337107337107337	638.8278388278388	
1.6791453416598127E12	0.7297147297147296	568.4981684981684	
1.6791453416637188E12	0.7736707736707735	528.9377289377289	
1.6791453416676248E12	0.7363747363747363	453.47985347985343	
1.6791453416715308E12	0.7319347319347319	451.28205128205127	
1.6791453416754368E12	0.7456987456987457	534.065934065934	
1.6791453416793428E12	0.73992673992674	643.9560439560439	
1.6791453416832488E12	0.7492507492507493	777.2893772893773	
1.6791453416871548E12	0.7434787434787435	931.8681318681319	
1.6791453416910608E12	0.7314907314907314	1060.07326007326	
1.6791453416949668E12	0.7221667221667222	1243.956043956044	
1.6791453416988728E12	0.7701187701187701	1489.3772893772893	
1.6791453417027788E12	0.7434787434787435	1622.7106227106226	
1.6791453417066848E12	0.7461427461427462	1778.021978021978	
1.6791453417105908E12	0.7408147408147409	1925.2747252747251	
1.6791453417144968E12	0.7501387501387502	2073.260073260073	
1.6791453417184028E12	0.7448107448107448	2203.6630036630036	
1.679145341722309E12	0.7319347319347319	2269.5970695970695	
1.679145341726215E12	0.7190587190587191	2364.102564102564	
1.679145341730121E12	0.7208347208347209	2474.7252747252746	
1.679145341734027E12	0.7319347319347319	2560.4395604395604	
1.679145341737933E12	0.7514707514707515	2661.5384615384614	
1.679145341741839E12	0.7390387390387391	2659.3406593406594	
1.679145341745745E12	0.7363747363747363	2588.2783882783883	
1.6791453417496511E12	0.7332667332667332	2515.7509157509157	
1.6791453417535571E12	0.7319347319347319	2383.8827838827838	
1.6791453417574631E12	0.7781107781107781	2306.9597069597066	
1.6791453417613691E12	0.7288267288267287	2008.7912087912086	
1.6791453417652751E12	0.7261627261627261	1817.5824175824175	
1.6791453417691812E12	0.7532467532467534	1712.8205128205127	
1.6791453417730872E12	0.7372627372627372	1544.3223443223442	
1.6791453417769932E12	0.7421467421467423	1394.8717948717947	
1.6791453417808992E12	0.7354867354867355	1233.6996336996335	
1.6791453417848052E12	0.7319347319347319	1067.3992673992673	
1.6791453417887112E12	0.7292707292707292	875.4578754578754	
1.6791453417926174E12	0.7519147519147519	732.6007326007325	
1.6791453417965234E12	0.7456987456987457	574.3589743589744	
1.6791453418004294E12	0.7461427461427462	528.9377289377289	
1.6791453418043354E12	0.7323787323787323	587.5457875457876	
1.6791453418082415E12	0.7221667221667222	716.4835164835164	
1.6791453418121475E12	0.7403707403707404	893.7728937728937	
1.6791453418160535E12	0.7252747252747253	1021.2454212454212	
1.6791453418199595E12	0.7203907203907204	1173.6263736263736	
1.6791453418238655E12	0.7199467199467199	1347.985347985348	
1.6791453418277715E12	0.7301587301587301	1523.8095238095236	
1.6791453418316775E12	0.7545787545787547	1704.0293040293038	
1.6791453418355835E12	0.7359307359307358	1783.8827838827838	
1.6791453418394895E12	0.7328227328227328	1865.201465201465	
1.6791453418433955E12	0.7274947274947274	1920.8791208791208	
1.6791453418473015E12	0.7625707625707626	2022.7106227106226	
1.6791453418512075E12	0.7252747252747253	1955.311355311355	
1.6791453418551135E12	0.7239427239427239	1967.7655677655675	
1.6791453418590195E12	0.7257187257187256	1973.6263736263736	
1.6791453418629258E12	0.7545787545787547	2037.3626373626373	
1.6791453418668318E12	0.7345987345987345	1999.9999999999998	
1.6791453418707378E12	0.7345987345987345	1953.8461538461538	
1.6791453418746438E12	0.7297147297147296	1886.4468864468863	
1.6791453418785498E12	0.7252747252747253	1857.142857142857	
1.6791453418824558E12	0.7243867243867244	1810.2564102564102	
1.6791453418863618E12	0.7226107226107225	1784.6153846153845	
1.6791453418902678E12	0.7328227328227328	1771.4285714285713	
1.6791453418941738E12	0.7550227550227551	1780.9523809523807	
1.6791453418980798E12	0.743034743034743	1746.5201465201465	
1.6791453419019858E12	0.7328227328227328	1665.201465201465	
1.6791453419058918E12	0.7274947274947274	1620.5128205128203	
1.6791453419097979E12	0.7248307248307249	1600.0	
1.6791453419137039E12	0.7723387723387722	1657.142857142857	
1.6791453419176099E12	0.7381507381507381	1562.6373626373625	
1.6791453419215159E12	0.7337107337107337	1493.040293040293	
1.6791453419254219E12	0.7492507492507493	1473.260073260073	
1.679145341929328E12	0.7341547341547341	1452.7472527472526	
1.6791453419332341E12	0.7354867354867355	1432.9670329670328	
1.6791453419371401E12	0.7292707292707292	1416.117216117216	
1.6791453419410461E12	0.7292707292707292	1402.9304029304028	
1.6791453419449521E12	0.7705627705627706	1438.095238095238	
1.6791453419488582E12	0.7234987234987235	1358.2417582417581	
1.6791453419527642E12	0.7461427461427462	1378.021978021978	
1.6791453419566702E12	0.7510267510267511	1370.6959706959706	
1.6791453419605762E12	0.7403707403707404	1390.4761904761904	
1.6791453419644822E12	0.7332667332667332	1388.278388278388	
1.6791453419683882E12	0.7257187257187256	1408.058608058608	
1.6791453419722942E12	0.7616827616827617	1470.3296703296703	
1.6791453419762002E12	0.7252747252747253	1450.5494505494505	
1.6791453419801062E12	0.7230547230547231	1480.5860805860805	
1.6791453419840122E12	0.7226107226107225	1504.7619047619046	
1.6791453419879182E12	0.7496947496947497	1589.7435897435896	
1.6791453419918242E12	0.7385947385947385	1589.7435897435896	
1.6791453419957302E12	0.7403707403707404	1554.5787545787546	
1.6791453419996362E12	0.7488067488067489	1531.8681318681317	
1.6791453420035425E12	0.727050727050727	1408.7912087912086	
1.6791453420074485E12	0.7248307248307249	1367.7655677655678	
1.6791453420113545E12	0.7261627261627261	1326.7399267399267	
1.6791453420152605E12	0.7252747252747253	1293.7728937728937	
1.6791453420191665E12	0.7554667554667555	1300.3663003663003	
1.6791453420230725E12	0.7368187368187368	1227.8388278388277	
1.6791453420269785E12	0.747030747030747	1176.5567765567764	
1.6791453420308845E12	0.7332667332667332	1022.7106227106226	
1.6791453420347905E12	0.7297147297147296	930.4029304029303	
1.6791453420386965E12	0.7736707736707735	878.3882783882783	
1.6791453420426025E12	0.7359307359307358	786.8131868131868	
1.6791453420465085E12	0.7306027306027304	768.4981684981684	
1.6791453420504146E12	0.7465867465867466	821.2454212454212	
1.6791453420543206E12	0.743034743034743	897.4358974358973	
1.6791453420582266E12	0.7323787323787323	922.3443223443223	
1.6791453420621326E12	0.7266067266067265	992.6739926739926	
1.6791453420660386E12	0.7230547230547231	1101.8315018315018	
1.6791453420699446E12	0.7234987234987235	1219.047619047619	
1.6791453420738508E12	0.7514707514707515	1369.9633699633698	
1.6791453420777568E12	0.7341547341547341	1398.5347985347985	
1.6791453420816628E12	0.747030747030747	1458.6080586080584	
1.6791453420855688E12	0.731046731046731	1528.937728937729	
1.6791453420894749E12	0.7306027306027304	1628.5714285714284	
1.6791453420933809E12	0.7266067266067265	1717.9487179487178	
1.6791453420972869E12	0.7288267288267287	1797.069597069597	
1.6791453421011929E12	0.7266067266067265	1846.8864468864467	
1.6791453421050989E12	0.7212787212787212	1895.2380952380952	
1.679145342109005E12	0.7314907314907314	1964.102564102564	
1.679145342112911E12	0.7496947496947497	2066.6666666666665	
1.679145342116817E12	0.7554667554667555	2093.040293040293	
1.679145342120723E12	0.7341547341547341	2051.2820512820513	
1.679145342124629E12	0.7257187257187256	2027.8388278388277	
1.679145342128535E12	0.7274947274947274	2052.747252747253	
1.679145342132441E12	0.7239427239427239	2051.2820512820513	
1.679145342136347E12	0.7248307248307249	2029.3040293040292	
1.679145342140253E12	0.7452547452547452	2041.7582417582416	
1.6791453421441592E12	0.7483627483627484	2010.989010989011	
1.6791453421480652E12	0.7412587412587412	2007.3260073260071	
1.6791453421519712E12	0.7323787323787323	1945.054945054945	
1.6791453421558772E12	0.7292707292707292	1900.3663003663003	
1.6791453421597832E12	0.7607947607947607	1892.3076923076922	
1.6791453421636892E12	0.7226107226107225	1796.3369963369962	
1.6791453421675952E12	0.7212787212787212	1781.6849816849815	
1.6791453421715012E12	0.7212787212787212	1760.4395604395604	
1.6791453421754072E12	0.7510267510267511	1819.7802197802196	
1.6791453421793132E12	0.743034743034743	1766.3003663003662	
1.6791453421832192E12	0.7323787323787323	1710.6227106227104	
1.6791453421871252E12	0.727050727050727	1675.4578754578754	
1.6791453421910312E12	0.7567987567987569	1686.4468864468863	
1.6791453421949373E12	0.7505827505827507	1660.07326007326	
1.6791453421988433E12	0.7234987234987235	1545.054945054945	
1.6791453422027493E12	0.7306027306027304	1525.2747252747251	
1.6791453422066553E12	0.7465867465867466	1528.2051282051282	
1.6791453422105613E12	0.7341547341547341	1523.8095238095236	
1.6791453422144675E12	0.735042735042735	1512.087912087912	
1.6791453422183735E12	0.7439227439227439	1523.0769230769229	
1.6791453422222795E12	0.7274947274947274	1481.3186813186812	
1.6791453422261855E12	0.7217227217227218	1485.7142857142856	
1.6791453422300916E12	0.7230547230547231	1504.7619047619046	
1.6791453422339976E12	0.7341547341547341	1502.5641025641025	
1.6791453422379036E12	0.7474747474747476	1517.9487179487178	
1.6791453422418096E12	0.7337107337107337	1513.5531135531135	
1.6791453422457156E12	0.7319347319347319	1495.970695970696	
1.6791453422496216E12	0.7261627261627261	1483.5164835164835	
1.6791453422535276E12	0.7607947607947607	1522.3443223443223	
1.6791453422574336E12	0.7243867243867244	1478.3882783882782	
1.6791453422613396E12	0.7221667221667222	1483.5164835164835	
1.6791453422652456E12	0.7195027195027196	1493.7728937728937	
1.6791453422691516E12	0.7488067488067489	1540.6593406593406	
1.6791453422730576E12	0.7448107448107448	1532.6007326007325	
1.6791453422769636E12	0.7363747363747363	1488.6446886446886	
1.6791453422808696E12	0.7461427461427462	1461.5384615384614	
1.679145342284776E12	0.7243867243867244	1366.3003663003662	
1.679145342288682E12	0.7230547230547231	1347.2527472527472	
1.679145342292588E12	0.7217227217227218	1346.5201465201465	
1.679145342296494E12	0.7461427461427462	1392.6739926739926	
1.6791453423004E12	0.7483627483627484	1386.080586080586	
1.679145342304306E12	0.7425907425907425	1408.058608058608	
1.679145342308212E12	0.7359307359307358	1394.139194139194	
1.679145342312118E12	0.7332667332667332	1408.7912087912086	
1.679145342316024E12	0.763014763014763	1405.8608058608058	
1.67914534231993E12	0.7505827505827507	1382.4175824175823	
1.679145342323836E12	0.7217227217227218	1320.14652014652	
1.679145342327742E12	0.7297147297147296	1342.8571428571427	
1.679145342331648E12	0.7488067488067489	1398.5347985347985	
1.679145342335554E12	0.7434787434787435	1394.139194139194	
1.67914534233946E12	0.7319347319347319	1402.9304029304028	
1.679145342343366E12	0.7257187257187256	1427.8388278388277	
1.679145342347272E12	0.7541347541347542	1501.8315018315018	
1.679145342351178E12	0.7252747252747253	1479.8534798534797	
1.6791453423550842E12	0.7243867243867244	1503.2967032967033	
1.6791453423589902E12	0.7319347319347319	1520.8791208791208	
1.6791453423628962E12	0.7510267510267511	1561.1721611721612	
1.6791453423668022E12	0.7377067377067377	1553.113553113553	
1.6791453423707083E12	0.7385947385947385	1504.0293040293038	
1.6791453423746143E12	0.7328227328227328	1457.8754578754579	
1.6791453423785203E12	0.7297147297147296	1392.6739926739926	
1.6791453423824263E12	0.774114774114774	1350.18315018315	
1.6791453423863323E12	0.7257187257187256	1197.069597069597	
1.6791453423902383E12	0.7257187257187256	1119.4139194139193	
1.6791453423941443E12	0.7523587523587524	1115.018315018315	
1.6791453423980503E12	0.7385947385947385	1067.3992673992673	
1.6791453424019563E12	0.7363747363747363	1019.7802197802197	
1.6791453424058623E12	0.7328227328227328	971.4285714285713	
1.6791453424097683E12	0.7301587301587301	858.6080586080585	
1.6791453424136743E12	0.727050727050727	794.139194139194	
1.6791453424175803E12	0.7248307248307249	769.9633699633699	
1.6791453424214863E12	0.7230547230547231	762.6373626373626	
1.6791453424253926E12	0.7519147519147519	803.6630036630036	
1.6791453424292986E12	0.7354867354867355	811.7216117216117	
1.6791453424332046E12	0.7456987456987457	830.7692307692307	
1.6791453424371106E12	0.7314907314907314	775.8241758241758	
1.6791453424410166E12	0.7266067266067265	772.8937728937728	
1.6791453424449226E12	0.7252747252747253	821.2454212454212	
1.6791453424488286E12	0.7607947607947607	862.2710622710622	
1.6791453424527346E12	0.7461427461427462	804.3956043956043	
1.6791453424566406E12	0.7425907425907425	855.6776556776556	
1.6791453424605466E12	0.7301587301587301	983.1501831501831	
1.6791453424644526E12	0.7292707292707292	1131.135531135531	
1.6791453424683586E12	0.7243867243867244	1283.5164835164835	
1.6791453424722646E12	0.7266067266067265	1438.095238095238	
1.6791453424761707E12	0.7687867687867688	1638.8278388278386	
1.6791453424800767E12	0.7208347208347209	1687.9120879120878	
1.6791453424839827E12	0.7434787434787435	1842.4908424908424	
1.6791453424878887E12	0.7465867465867466	1934.7985347985348	
1.6791453424917947E12	0.7417027417027416	2042.4908424908424	
1.679145342495701E12	0.7323787323787323	2090.10989010989	
1.679145342499607E12	0.7252747252747253	2136.263736263736	
1.679145342503513E12	0.7328227328227328	2199.267399267399	
1.679145342507419E12	0.7665667665667666	2303.296703296703	
1.679145342511325E12	0.7208347208347209	2234.4322344322345	
1.679145342515231E12	0.7301587301587301	2275.457875457875	
1.679145342519137E12	0.7456987456987457	2326.7399267399264	
1.679145342523043E12	0.7385947385947385	2353.113553113553	
1.679145342526949E12	0.7283827283827283	2371.428571428571	
1.679145342530855E12	0.7234987234987235	2365.5677655677655	
1.679145342534761E12	0.7274947274947274	2397.8021978021975	
1.679145342538667E12	0.7195027195027196	2394.871794871795	
1.679145342542573E12	0.7181707181707182	2427.8388278388275	
1.679145342546479E12	0.7274947274947274	2457.875457875458	
1.679145342550385E12	0.7448107448107448	2508.424908424908	
1.679145342554291E12	0.7412587412587412	2519.4139194139193	
1.679145342558197E12	0.7488067488067489	2519.4139194139193	
1.679145342562103E12	0.7230547230547231	2432.234432234432	
1.6791453425660093E12	0.7248307248307249	2432.967032967033	
1.6791453425699153E12	0.7239427239427239	2378.0219780219777	
1.6791453425738213E12	0.7230547230547231	2315.7509157509157	
1.6791453425777273E12	0.7279387279387278	2277.6556776556777	
1.6791453425816333E12	0.7448107448107448	2274.7252747252746	
1.6791453425855393E12	0.7452547452547452	2231.5018315018315	
1.6791453425894453E12	0.7479187479187479	2168.4981684981685	
1.6791453425933513E12	0.7230547230547231	2076.9230769230767	
1.6791453425972573E12	0.755910755910756	2087.179487179487	
1.6791453426011633E12	0.7212787212787212	1989.7435897435896	
1.6791453426050693E12	0.7186147186147186	1940.6593406593406	
1.6791453426089753E12	0.7266067266067265	1912.8205128205127	
1.6791453426128813E12	0.747030747030747	1933.3333333333333	
1.6791453426167874E12	0.7359307359307358	1912.087912087912	
1.6791453426206934E12	0.7359307359307358	1838.8278388278386	
1.6791453426245994E12	0.7297147297147296	1765.5677655677655	
1.6791453426285054E12	0.7274947274947274	1661.5384615384614	
1.6791453426324114E12	0.7288267288267287	1548.7179487179485	
1.6791453426363176E12	0.7643467643467642	1413.9194139194137	
1.6791453426402236E12	0.7306027306027304	1167.032967032967	
1.6791453426441296E12	0.7443667443667444	1075.4578754578754	
1.6791453426480356E12	0.7341547341547341	1011.7216117216117	
1.6791453426519417E12	0.7345987345987345	946.5201465201465	
1.6791453426558477E12	0.7279387279387278	881.3186813186812	
1.6791453426597537E12	0.7274947274947274	857.8754578754579	
1.6791453426636597E12	0.7252747252747253	832.2344322344322	
1.6791453426675657E12	0.7212787212787212	832.9670329670329	
1.6791453426714717E12	0.7292707292707292	852.0146520146519	
1.6791453426753777E12	0.7483627483627484	901.8315018315018	
1.6791453426792837E12	0.7372627372627372	931.8681318681319	
1.6791453426831897E12	0.735042735042735	939.9267399267399	
1.6791453426870957E12	0.7301587301587301	947.985347985348	
1.6791453426910017E12	0.7283827283827283	927.4725274725274	
1.6791453426949077E12	0.7288267288267287	912.8205128205127	
1.6791453426988137E12	0.7292707292707292	866.6666666666666	
1.67914534270272E12	0.7257187257187256	808.058608058608	
1.679145342706626E12	0.7536907536907537	774.3589743589743	
1.679145342710532E12	0.7421467421467423	695.9706959706959	
1.679145342714438E12	0.7483627483627484	602.1978021978022	
1.679145342718344E12	0.7394827394827396	474.7252747252747	
1.67914534272225E12	0.7248307248307249	418.3150183150183	
1.679145342726156E12	0.7239427239427239	419.78021978021974	
1.679145342730062E12	0.7243867243867244	442.49084249084245	
1.679145342733968E12	0.7221667221667222	490.1098901098901	
1.679145342737874E12	0.7514707514707515	557.5091575091575	
1.67914534274178E12	0.73992673992674	592.6739926739926	
1.679145342745686E12	0.7363747363747363	627.106227106227	
1.679145342749592E12	0.7332667332667332	640.2930402930402	
1.679145342753498E12	0.7306027306027304	647.6190476190476	
1.679145342757404E12	0.7758907758907758	687.9120879120878	
1.67914534276131E12	0.7279387279387278	632.2344322344322	
1.679145342765216E12	0.7288267288267287	629.3040293040293	
1.679145342769122E12	0.7514707514707515	663.7362637362637	
1.6791453427730283E12	0.7381507381507381	684.9816849816849	
1.6791453427769343E12	0.7323787323787323	662.2710622710622	
1.6791453427808403E12	0.7425907425907425	654.945054945055	
1.6791453427847463E12	0.7545787545787547	671.0622710622711	
1.6791453427886523E12	0.7390387390387391	783.8827838827839	
1.6791453427925583E12	0.7128427128427129	961.172161172161	
1.6791453427964644E12	0.7234987234987235	1230.03663003663	
1.6791453428003704E12	0.7417027417027416	1536.263736263736	
1.6791453428042764E12	0.7412587412587412	1784.6153846153845	
1.6791453428081824E12	0.7266067266067265	1985.3479853479853	
1.6791453428120884E12	0.7239427239427239	2179.487179487179	
1.6791453428159944E12	0.7536907536907537	2406.5934065934066	
1.6791453428199004E12	0.7483627483627484	2567.7655677655675	
1.6791453428238064E12	0.7208347208347209	2561.172161172161	
1.6791453428277124E12	0.7443667443667444	2687.912087912088	
1.6791453428316184E12	0.7479187479187479	2715.7509157509157	
1.6791453428355244E12	0.7421467421467423	2762.6373626373625	
1.6791453428394304E12	0.735042735042735	2712.0879120879117	
1.6791453428433367E12	0.727050727050727	2665.201465201465	
1.6791453428472427E12	0.7274947274947274	2635.164835164835	
1.6791453428511487E12	0.7701187701187701	2672.527472527472	
1.6791453428550547E12	0.7239427239427239	2479.8534798534797	
1.6791453428589607E12	0.7212787212787212	2382.4175824175823	
1.6791453428628667E12	0.7541347541347542	2355.3113553113553	
1.6791453428667727E12	0.7554667554667555	2224.175824175824	
1.6791453428706787E12	0.7337107337107337	2058.6080586080584	
1.6791453428745847E12	0.7243867243867244	1947.2527472527472	
1.6791453428784907E12	0.7261627261627261	1906.227106227106	
1.6791453428823967E12	0.7212787212787212	1852.7472527472526	
1.6791453428863027E12	0.7212787212787212	1799.2673992673992	
1.6791453428902087E12	0.7314907314907314	1758.2417582417581	
1.6791453428941147E12	0.7488067488067489	1747.2527472527472	
1.6791453428980208E12	0.7417027417027416	1720.8791208791208	
1.6791453429019268E12	0.7332667332667332	1659.3406593406592	
1.6791453429058328E12	0.7252747252747253	1602.9304029304028	
1.6791453429097388E12	0.7230547230547231	1575.8241758241757	
1.679145342913645E12	0.7692307692307693	1627.106227106227	
1.679145342917551E12	0.7217227217227218	1540.6593406593406	
1.679145342921457E12	0.7439227439227439	1553.8461538461538	
1.679145342925363E12	0.7452547452547452	1539.9267399267399	
1.679145342929269E12	0.7417027417027416	1553.8461538461538	
1.679145342933175E12	0.7314907314907314	1528.937728937729	
1.679145342937081E12	0.7279387279387278	1509.89010989011	
1.679145342940987E12	0.7243867243867244	1487.9120879120878	
1.679145342944893E12	0.7701187701187701	1547.985347985348	
1.679145342948799E12	0.7239427239427239	1411.7216117216117	
1.679145342952705E12	0.7465867465867466	1381.6849816849815	
1.679145342956611E12	0.7461427461427462	1350.9157509157508	
1.679145342960517E12	0.73992673992674	1364.102564102564	
1.679145342964423E12	0.7332667332667332	1361.1721611721612	
1.679145342968329E12	0.7266067266067265	1355.3113553113553	
1.679145342972235E12	0.7288267288267287	1371.4285714285713	
1.679145342976141E12	0.7239427239427239	1354.5787545787546	
1.679145342980047E12	0.7217227217227218	1361.1721611721612	
1.6791453429839534E12	0.7248307248307249	1369.9633699633698	
1.6791453429878594E12	0.7567987567987569	1429.3040293040292	
1.6791453429917654E12	0.7363747363747363	1405.128205128205	
1.6791453429956714E12	0.7332667332667332	1412.4542124542124	
1.6791453429995774E12	0.7252747252747253	1393.4065934065934	
1.6791453430034834E12	0.7248307248307249	1426.3736263736262	
1.6791453430073894E12	0.7257187257187256	1464.4688644688645	
1.6791453430112954E12	0.7221667221667222	1482.7838827838827	
1.6791453430152014E12	0.727050727050727	1517.216117216117	
1.6791453430191074E12	0.7425907425907425	1592.6739926739926	
1.6791453430230134E12	0.7372627372627372	1659.3406593406592	
1.6791453430269194E12	0.731046731046731	1709.1575091575091	
1.6791453430308254E12	0.7368187368187368	1769.230769230769	
1.6791453430347314E12	0.7243867243867244	1811.7216117216117	
1.6791453430386375E12	0.7252747252747253	1879.8534798534797	
1.6791453430425435E12	0.7203907203907204	1913.5531135531135	
1.6791453430464495E12	0.727050727050727	1957.5091575091574	
1.6791453430503555E12	0.743034743034743	2031.5018315018315	
1.6791453430542617E12	0.7372627372627372	2069.5970695970695	
1.6791453430581677E12	0.7301587301587301	2073.260073260073	
1.6791453430620737E12	0.7221667221667222	2125.274725274725	
1.6791453430659797E12	0.7550227550227551	2166.300366300366	
1.6791453430698857E12	0.7195027195027196	2115.7509157509157	
1.6791453430737917E12	0.7195027195027196	2136.996336996337	
1.6791453430776978E12	0.7266067266067265	2120.879120879121	
1.6791453430816038E12	0.7421467421467423	2154.5787545787543	
1.6791453430855098E12	0.7381507381507381	2189.010989010989	
1.6791453430894158E12	0.7319347319347319	2149.4505494505493	
1.6791453430933218E12	0.7274947274947274	2139.9267399267396	
1.6791453430972278E12	0.7261627261627261	2093.7728937728934	
1.6791453431011338E12	0.7252747252747253	2027.106227106227	
1.6791453431050398E12	0.7612387612387612	2009.5238095238094	
1.6791453431089458E12	0.7221667221667222	1739.9267399267399	
1.6791453431128518E12	0.7501387501387502	1668.8644688644688	
1.6791453431167578E12	0.7345987345987345	1543.5897435897434	
1.6791453431206638E12	0.7368187368187368	1410.989010989011	
1.67914534312457E12	0.731046731046731	1275.4578754578754	
1.679145343128476E12	0.7283827283827283	1128.2051282051282	
1.679145343132382E12	0.7754467754467754	1019.7802197802197	
1.679145343136288E12	0.727050727050727	783.1501831501831	
1.679145343140194E12	0.7274947274947274	638.0952380952381	
1.6791453431441E12	0.7492507492507493	547.985347985348	
1.679145343148006E12	0.7567987567987569	462.27106227106225	
1.679145343151912E12	0.7434787434787435	332.60073260073256	
1.679145343155818E12	0.73992673992674	253.47985347985346	
1.679145343159724E12	0.7261627261627261	232.96703296703296	
1.6791453431636301E12	0.7652347652347653	281.3186813186813	
1.6791453431675361E12	0.7195027195027196	330.4029304029304	
1.6791453431714421E12	0.7257187257187256	428.57142857142856	
1.6791453431753481E12	0.7461427461427462	547.2527472527472	
1.6791453431792542E12	0.7452547452547452	641.025641025641	
1.6791453431831602E12	0.7283827283827283	753.113553113553	
1.6791453431870662E12	0.7230547230547231	894.5054945054944	
1.6791453431909722E12	0.7226107226107225	1039.5604395604396	
1.6791453431948784E12	0.7243867243867244	1159.7069597069597	
1.6791453431987844E12	0.7221667221667222	1256.4102564102564	
1.6791453432026904E12	0.7288267288267287	1355.3113553113553	
1.6791453432065964E12	0.7452547452547452	1455.6776556776556	
1.6791453432105024E12	0.7421467421467423	1545.054945054945	
1.6791453432144084E12	0.7337107337107337	1586.8131868131868	
1.6791453432183145E12	0.7417027417027416	1666.6666666666665	
1.6791453432222205E12	0.7274947274947274	1644.6886446886447	
1.6791453432261265E12	0.7221667221667222	1664.4688644688645	
1.6791453432300325E12	0.7212787212787212	1691.5750915750914	
1.6791453432339385E12	0.7456987456987457	1753.113553113553	
1.6791453432378445E12	0.7496947496947497	1741.3919413919414	
1.6791453432417505E12	0.7434787434787435	1747.985347985348	
1.6791453432456565E12	0.7345987345987345	1718.6813186813185	
1.6791453432495625E12	0.7248307248307249	1690.8424908424906	
1.6791453432534685E12	0.7288267288267287	1705.4945054945053	
1.6791453432573745E12	0.7234987234987235	1698.9010989010987	
1.6791453432612805E12	0.7217227217227218	1671.7948717948716	
1.6791453432651868E12	0.7199467199467199	1655.6776556776556	
1.6791453432690928E12	0.7545787545787547	1698.168498168498	
1.6791453432729988E12	0.7505827505827507	1620.5128205128203	
1.6791453432769048E12	0.7328227328227328	1526.7399267399267	
1.6791453432808108E12	0.7239427239427239	1505.4945054945053	
1.6791453432847168E12	0.7212787212787212	1510.6227106227104	
1.6791453432886228E12	0.7674547674547674	1589.7435897435896	
1.6791453432925288E12	0.7230547230547231	1511.3553113553112	
1.6791453432964348E12	0.7257187257187256	1508.4249084249084	
1.6791453433003408E12	0.7461427461427462	1532.6007326007325	
1.6791453433042468E12	0.7341547341547341	1541.3919413919414	
1.6791453433081528E12	0.7337107337107337	1528.2051282051282	
1.6791453433120588E12	0.7279387279387278	1509.1575091575091	
1.6791453433159648E12	0.7257187257187256	1493.7728937728937	
1.6791453433198708E12	0.7266067266067265	1479.8534798534797	
1.6791453433237769E12	0.7212787212787212	1446.8864468864467	
1.6791453433276829E12	0.7283827283827283	1447.6190476190475	
1.6791453433315889E12	0.7479187479187479	1487.179487179487	
1.679145343335495E12	0.7505827505827507	1475.4578754578754	
1.6791453433394011E12	0.7301587301587301	1430.7692307692307	
1.6791453433433071E12	0.7234987234987235	1446.8864468864467	
1.6791453433472131E12	0.7212787212787212	1490.8424908424906	
1.6791453433511191E12	0.7279387279387278	1541.3919413919414	
1.6791453433550251E12	0.7234987234987235	1553.8461538461538	
1.6791453433589312E12	0.7306027306027304	1576.5567765567764	
1.6791453433628372E12	0.7479187479187479	1624.9084249084249	
1.6791453433667432E12	0.7536907536907537	1616.8498168498168	
1.6791453433706492E12	0.7345987345987345	1558.974358974359	
1.6791453433745552E12	0.7252747252747253	1536.263736263736	
1.6791453433784612E12	0.7279387279387278	1561.9047619047617	
1.6791453433823672E12	0.7226107226107225	1580.2197802197802	
1.6791453433862732E12	0.7226107226107225	1570.6959706959706	
1.6791453433901792E12	0.7292707292707292	1563.3699633699632	
1.6791453433940852E12	0.7474747474747476	1572.161172161172	
1.6791453433979912E12	0.7359307359307358	1570.6959706959706	
1.6791453434018972E12	0.7323787323787323	1545.7875457875457	
1.6791453434058035E12	0.7417027417027416	1544.3223443223442	
1.6791453434097095E12	0.7234987234987235	1465.9340659340658	
1.6791453434136155E12	0.7230547230547231	1460.8058608058607	
1.6791453434175215E12	0.7221667221667222	1476.923076923077	
1.6791453434214275E12	0.7288267288267287	1497.4358974358972	
1.6791453434253335E12	0.747030747030747	1549.4505494505493	
1.6791453434292395E12	0.7372627372627372	1560.4395604395604	
1.6791453434331455E12	0.7394827394827396	1500.3663003663003	
1.6791453434370515E12	0.7288267288267287	1449.084249084249	
1.6791453434409575E12	0.7306027306027304	1432.2344322344322	
1.6791453434448635E12	0.7239427239427239	1383.8827838827838	
1.6791453434487695E12	0.7221667221667222	1356.0439560439559	
1.6791453434526755E12	0.7301587301587301	1354.5787545787546	
1.6791453434565815E12	0.7479187479187479	1397.069597069597	
1.6791453434604875E12	0.7368187368187368	1414.6520146520145	
1.6791453434643936E12	0.7345987345987345	1407.3260073260071	
1.6791453434682996E12	0.7306027306027304	1397.8021978021977	
1.6791453434722056E12	0.7292707292707292	1356.0439560439559	
1.6791453434761118E12	0.7732267732267731	1331.135531135531	
1.6791453434800178E12	0.7257187257187256	1191.2087912087911	
1.6791453434839238E12	0.7274947274947274	1142.1245421245421	
1.6791453434878298E12	0.7439227439227439	1156.0439560439559	
1.6791453434917358E12	0.7372627372627372	1183.8827838827838	
1.6791453434956418E12	0.747030747030747	1243.956043956044	
1.6791453434995479E12	0.747030747030747	1326.7399267399267	
1.6791453435034539E12	0.7514707514707515	1397.069597069597	
1.6791453435073599E12	0.7208347208347209	1482.7838827838827	
1.6791453435112659E12	0.7146187146187145	1623.4432234432234	
1.6791453435151719E12	0.7234987234987235	1801.4652014652013	
1.679145343519078E12	0.7421467421467423	1993.4065934065932	
1.679145343522984E12	0.7385947385947385	2144.322344322344	
1.67914534352689E12	0.7461427461427462	2285.714285714286	
1.679145343530796E12	0.7243867243867244	2356.043956043956	
1.679145343534702E12	0.7567987567987569	2472.5274725274726	
1.679145343538608E12	0.7523587523587524	2534.7985347985345	
1.679145343542514E12	0.7195027195027196	2463.003663003663	
1.6791453435464202E12	0.7434787434787435	2512.0879120879117	
1.6791453435503262E12	0.7439227439227439	2482.7838827838827	
1.6791453435542322E12	0.7456987456987457	2493.040293040293	
1.6791453435581382E12	0.7274947274947274	2417.5824175824173	
1.6791453435620442E12	0.7266067266067265	2347.252747252747	
1.6791453435659502E12	0.7585747585747586	2317.948717948718	
1.6791453435698562E12	0.7230547230547231	2157.5091575091574	
1.6791453435737622E12	0.7234987234987235	2060.07326007326	
1.6791453435776682E12	0.7297147297147296	1975.091575091575	
1.6791453435815742E12	0.7465867465867466	1901.098901098901	
1.6791453435854802E12	0.7363747363747363	1828.5714285714284	
1.6791453435893862E12	0.7337107337107337	1717.216117216117	
1.6791453435932922E12	0.7292707292707292	1623.4432234432234	
1.6791453435971982E12	0.755910755910756	1564.8351648351647	
1.6791453436011042E12	0.7239427239427239	1434.4322344322343	
1.6791453436050103E12	0.7208347208347209	1372.8937728937728	
1.6791453436089163E12	0.7221667221667222	1317.216117216117	
1.6791453436128223E12	0.7492507492507493	1296.7032967032967	
1.6791453436167285E12	0.7488067488067489	1244.6886446886447	
1.6791453436206345E12	0.7377067377067377	1165.5677655677655	
1.6791453436245405E12	0.7252747252747253	1115.7509157509157	
1.6791453436284465E12	0.7288267288267287	1112.8205128205127	
1.6791453436323525E12	0.7248307248307249	1101.8315018315018	
1.6791453436362585E12	0.7234987234987235	1087.179487179487	
1.6791453436401646E12	0.7221667221667222	1083.5164835164835	
1.6791453436440706E12	0.7492507492507493	1124.5421245421244	
1.6791453436479766E12	0.73992673992674	1128.2051282051282	
1.6791453436518826E12	0.7332667332667332	1076.923076923077	
1.6791453436557886E12	0.7452547452547452	1047.6190476190475	
1.6791453436596946E12	0.7261627261627261	950.9157509157509	
1.6791453436636006E12	0.7239427239427239	916.4835164835164	
1.6791453436675066E12	0.7226107226107225	919.4139194139193	
1.6791453436714126E12	0.7288267288267287	939.9267399267399	
1.6791453436753186E12	0.7483627483627484	980.2197802197802	
1.6791453436792246E12	0.7368187368187368	1015.3846153846154	
1.6791453436831306E12	0.7354867354867355	1041.0256410256409	
1.6791453436870369E12	0.7292707292707292	1082.7838827838827	
1.6791453436909429E12	0.7274947274947274	1108.4249084249084	
1.6791453436948489E12	0.7283827283827283	1135.5311355311355	
1.679145343698755E12	0.7647907647907648	1150.9157509157508	
1.679145343702661E12	0.7243867243867244	1057.8754578754579	
1.679145343706567E12	0.7488067488067489	1091.5750915750914	
1.679145343710473E12	0.7354867354867355	1090.10989010989	
1.679145343714379E12	0.7443667443667444	1104.7619047619046	
1.679145343718285E12	0.7461427461427462	1063.7362637362637	
1.679145343722191E12	0.7603507603507603	975.8241758241758	
1.679145343726097E12	0.7230547230547231	922.3443223443223	
1.679145343730003E12	0.7186147186147186	960.4395604395604	
1.679145343733909E12	0.7274947274947274	1060.07326007326	
1.679145343737815E12	0.7452547452547452	1175.8241758241757	
1.679145343741721E12	0.7377067377067377	1270.3296703296703	
1.679145343745627E12	0.7474747474747476	1397.8021978021977	
1.679145343749533E12	0.7452547452547452	1518.6813186813185	
1.679145343753439E12	0.7319347319347319	1602.9304029304028	
1.6791453437573452E12	0.7656787656787656	1767.7655677655675	
1.6791453437612512E12	0.7536907536907537	1873.260073260073	
1.6791453437651572E12	0.7239427239427239	1906.227106227106	
1.6791453437690632E12	0.7425907425907425	2070.32967032967	
1.6791453437729692E12	0.7377067377067377	2174.358974358974	
1.6791453437768752E12	0.7479187479187479	2272.5274725274726	
1.6791453437807812E12	0.7217227217227218	2281.3186813186812	
1.6791453437846873E12	0.7230547230547231	2375.8241758241757	
1.6791453437885933E12	0.7257187257187256	2439.5604395604396	
1.6791453437924993E12	0.7230547230547231	2446.8864468864467	
1.6791453437964053E12	0.7266067266067265	2460.07326007326	
1.6791453438003113E12	0.7448107448107448	2547.252747252747	
1.6791453438042173E12	0.7332667332667332	2575.8241758241757	
1.6791453438081233E12	0.7412587412587412	2542.124542124542	
1.6791453438120293E12	0.7266067266067265	2446.8864468864467	
1.6791453438159353E12	0.7243867243867244	2389.7435897435894	
1.6791453438198413E12	0.7239427239427239	2334.065934065934	
1.6791453438237476E12	0.7243867243867244	2250.5494505494503	
1.6791453438276536E12	0.7252747252747253	2135.5311355311355	
1.6791453438315596E12	0.7536907536907537	2076.9230769230767	
1.6791453438354656E12	0.7434787434787435	1884.249084249084	
1.6791453438393716E12	0.7359307359307358	1684.249084249084	
1.6791453438432776E12	0.7292707292707292	1531.8681318681317	
1.6791453438471836E12	0.727050727050727	1384.6153846153845	
1.6791453438510896E12	0.7274947274947274	1254.212454212454	
1.6791453438549956E12	0.7279387279387278	1123.8095238095236	
1.6791453438589016E12	0.7279387279387278	993.4065934065933	
1.6791453438628076E12	0.7514707514707515	846.8864468864468	
1.6791453438667136E12	0.7377067377067377	728.2051282051282	
1.6791453438706196E12	0.7363747363747363	632.2344322344322	
1.6791453438745256E12	0.731046731046731	573.6263736263736	
1.6791453438784316E12	0.7279387279387278	534.065934065934	
1.6791453438823376E12	0.727050727050727	512.8205128205128	
1.6791453438862437E12	0.7261627261627261	443.9560439560439	
1.6791453438901497E12	0.7243867243867244	419.04761904761904	
1.679145343894056E12	0.7510267510267511	449.08424908424905	
1.679145343897962E12	0.7394827394827396	476.9230769230769	
1.679145343901868E12	0.7368187368187368	503.29670329670324	
1.679145343905774E12	0.7306027306027304	539.9267399267399	
1.67914534390968E12	0.7283827283827283	572.8937728937728	
1.679145343913586E12	0.7745587745587745	636.6300366300366	
1.679145343917492E12	0.7625707625707626	586.8131868131868	
1.679145343921398E12	0.7332667332667332	555.3113553113553	
1.679145343925304E12	0.7461427461427462	631.5018315018315	
1.67914534392921E12	0.7288267288267287	753.113553113553	
1.679145343933116E12	0.7283827283827283	941.3919413919414	
1.679145343937022E12	0.7221667221667222	1128.937728937729	
1.679145343940928E12	0.7248307248307249	1313.5531135531135	
1.679145343944834E12	0.7186147186147186	1501.8315018315018	
1.67914534394874E12	0.7195027195027196	1696.7032967032967	
1.679145343952646E12	0.7283827283827283	1882.051282051282	
1.679145343956552E12	0.7474747474747476	2081.3186813186812	
1.679145343960458E12	0.7363747363747363	2204.395604395604	
1.6791453439643643E12	0.7345987345987345	2257.142857142857	
1.6791453439682703E12	0.7448107448107448	2321.6117216117214	
1.6791453439721763E12	0.7625707625707626	2282.0512820512818	
1.6791453439760823E12	0.7257187257187256	2172.161172161172	
1.6791453439799883E12	0.7217227217227218	2133.333333333333	
1.6791453439838943E12	0.7448107448107448	2158.974358974359	
1.6791453439878003E12	0.7492507492507493	2111.355311355311	
1.6791453439917063E12	0.7448107448107448	2085.714285714286	
1.6791453439956123E12	0.7297147297147296	1995.6043956043954	
1.6791453439995183E12	0.7266067266067265	1948.7179487179485	
1.6791453440034243E12	0.7239427239427239	1911.3553113553112	
1.6791453440073303E12	0.7696747696747697	1960.4395604395604	
1.6791453440112363E12	0.7239427239427239	1829.3040293040292	
1.6791453440151423E12	0.7465867465867466	1827.8388278388277	
1.6791453440190483E12	0.7474747474747476	1786.8131868131868	
1.6791453440229543E12	0.7359307359307358	1768.4981684981683	
1.6791453440268604E12	0.73992673992674	1750.9157509157508	
1.6791453440307664E12	0.7417027417027416	1698.9010989010987	
1.6791453440346726E12	0.7306027306027304	1643.956043956044	
1.6791453440385786E12	0.7252747252747253	1584.6153846153845	
1.6791453440424846E12	0.7212787212787212	1563.3699633699632	
1.6791453440463906E12	0.7208347208347209	1553.8461538461538	
1.6791453440502966E12	0.7505827505827507	1597.069597069597	
1.6791453440542026E12	0.7465867465867466	1605.8608058608058	
1.6791453440581086E12	0.7345987345987345	1567.7655677655678	
1.6791453440620146E12	0.7252747252747253	1548.7179487179485	
1.6791453440659207E12	0.7234987234987235	1561.9047619047617	
1.6791453440698267E12	0.7239427239427239	1585.3479853479853	
1.6791453440737327E12	0.7252747252747253	1560.4395604395604	
1.6791453440776387E12	0.7465867465867466	1556.0439560439559	
1.6791453440815447E12	0.7443667443667444	1533.3333333333333	
1.6791453440854507E12	0.7372627372627372	1564.102564102564	
1.6791453440893567E12	0.7377067377067377	1569.230769230769	
1.6791453440932627E12	0.7483627483627484	1592.6739926739926	
1.6791453440971687E12	0.7301587301587301	1600.0	
1.6791453441010747E12	0.7243867243867244	1645.4212454212452	
1.679145344104981E12	0.7190587190587191	1700.3663003663003	
1.679145344108887E12	0.7412587412587412	1805.128205128205	
1.679145344112793E12	0.7417027417027416	1863.7362637362637	
1.679145344116699E12	0.7354867354867355	1958.974358974359	
1.679145344120605E12	0.7283827283827283	2027.8388278388277	
1.679145344124511E12	0.7266067266067265	2084.2490842490843	
1.679145344128417E12	0.7523587523587524	2192.6739926739924	
1.679145344132323E12	0.7190587190587191	2186.080586080586	
1.679145344136229E12	0.7181707181707182	2259.3406593406594	
1.679145344140135E12	0.7230547230547231	2317.2161172161173	
1.679145344144041E12	0.7452547452547452	2413.186813186813	
1.679145344147947E12	0.743034743034743	2447.6190476190473	
1.679145344151853E12	0.7337107337107337	2383.8827838827838	
1.679145344155759E12	0.7292707292707292	2329.6703296703295	
1.679145344159665E12	0.7261627261627261	2248.3516483516482	
1.679145344163571E12	0.7257187257187256	2155.3113553113553	
1.679145344167477E12	0.727050727050727	2020.5128205128203	
1.679145344171383E12	0.7248307248307249	1837.3626373626373	
1.6791453441752893E12	0.7554667554667555	1759.7069597069597	
1.6791453441791953E12	0.7465867465867466	1613.186813186813	
1.6791453441831013E12	0.7332667332667332	1461.5384615384614	
1.6791453441870073E12	0.7377067377067377	1341.3919413919414	
1.6791453441909133E12	0.7248307248307249	1210.2564102564102	
1.6791453441948193E12	0.7243867243867244	1145.054945054945	
1.6791453441987253E12	0.7252747252747253	1089.3772893772893	
1.6791453442026313E12	0.7239427239427239	1035.164835164835	
1.6791453442065374E12	0.7514707514707515	1019.0476190476189	
1.6791453442104434E12	0.7417027417027416	949.4505494505494	
1.6791453442143494E12	0.73992673992674	855.6776556776556	
1.6791453442182554E12	0.7341547341547341	766.3003663003662	
1.6791453442221614E12	0.7297147297147296	674.7252747252746	
1.6791453442260674E12	0.7297147297147296	602.9304029304029	
1.6791453442299734E12	0.7301587301587301	512.8205128205128	
1.6791453442338794E12	0.7297147297147296	433.6996336996337	
1.6791453442377854E12	0.7603507603507603	356.77655677655673	
1.6791453442416914E12	0.7412587412587412	242.49084249084248	
1.6791453442455977E12	0.7341547341547341	202.1978021978022	
1.6791453442495037E12	0.7314907314907314	183.15018315018312	
1.6791453442534097E12	0.7297147297147296	191.94139194139194	
1.6791453442573157E12	0.7279387279387278	173.6263736263736	
1.6791453442612217E12	0.7230547230547231	158.97435897435895	
1.6791453442651277E12	0.7323787323787323	203.66300366300365	
1.6791453442690337E12	0.7417027417027416	322.34432234432234	
1.6791453442729397E12	0.7337107337107337	495.97069597069594	
1.6791453442768457E12	0.727050727050727	667.3992673992674	
1.6791453442807517E12	0.7390387390387391	863.7362637362637	
1.6791453442846577E12	0.7252747252747253	978.0219780219779	
1.6791453442885637E12	0.7505827505827507	1209.5238095238094	
1.6791453442924697E12	0.7195027195027196	1355.3113553113553	
1.6791453442963757E12	0.7279387279387278	1558.2417582417581	
1.6791453443002817E12	0.7510267510267511	1770.6959706959706	
1.6791453443041877E12	0.7448107448107448	1926.007326007326	
1.6791453443080938E12	0.7332667332667332	2015.3846153846152	
1.6791453443119998E12	0.7279387279387278	2093.7728937728934	
1.679145344315906E12	0.7257187257187256	2168.4981684981685	
1.679145344319812E12	0.7252747252747253	2220.5128205128203	
1.679145344323718E12	0.7252747252747253	2241.7582417582416	
1.679145344327624E12	0.7252747252747253	2210.9890109890107	
1.67914534433153E12	0.7532467532467534	2235.164835164835	
1.679145344335436E12	0.743034743034743	2165.5677655677655	
1.679145344339342E12	0.7394827394827396	2024.9084249084249	
1.679145344343248E12	0.7341547341547341	1893.7728937728937	
1.679145344347154E12	0.7599067599067599	1772.161172161172	
1.67914534435106E12	0.7736707736707735	1591.9413919413919	
1.679145344354966E12	0.7248307248307249	1330.4029304029302	
1.679145344358872E12	0.7266067266067265	1233.6996336996335	
1.679145344362778E12	0.7421467421467423	1228.5714285714284	
1.679145344366684E12	0.743034743034743	1234.4322344322343	
1.67914534437059E12	0.7301587301587301	1189.7435897435896	
1.679145344374496E12	0.7230547230547231	1233.6996336996335	
1.679145344378402E12	0.7212787212787212	1314.2857142857142	
1.679145344382308E12	0.7208347208347209	1420.5128205128203	
1.6791453443862144E12	0.7221667221667222	1498.9010989010987	
1.6791453443901204E12	0.7292707292707292	1552.3809523809523	
1.6791453443940264E12	0.7452547452547452	1656.4102564102564	
1.6791453443979324E12	0.7372627372627372	1744.3223443223442	
1.6791453444018384E12	0.7332667332667332	1782.4175824175823	
1.6791453444057444E12	0.7297147297147296	1824.9084249084249	
1.6791453444096504E12	0.7279387279387278	1820.5128205128203	
1.6791453444135564E12	0.7283827283827283	1775.8241758241757	
1.6791453444174624E12	0.7274947274947274	1723.8095238095236	
1.6791453444213684E12	0.7505827505827507	1684.9816849816848	
1.6791453444252744E12	0.7474747474747476	1569.230769230769	
1.6791453444291804E12	0.7456987456987457	1498.9010989010987	
1.6791453444330864E12	0.7341547341547341	1426.3736263736262	
1.6791453444369924E12	0.7372627372627372	1391.2087912087911	
1.6791453444408984E12	0.7279387279387278	1353.113553113553	
1.6791453444448044E12	0.7212787212787212	1345.7875457875457	
1.6791453444487104E12	0.7230547230547231	1370.6959706959706	
1.6791453444526165E12	0.7230547230547231	1392.6739926739926	
1.6791453444565227E12	0.7501387501387502	1465.9340659340658	
1.6791453444604287E12	0.7585747585747586	1436.6300366300366	
1.6791453444643347E12	0.7341547341547341	1383.150183150183	
1.6791453444682407E12	0.7519147519147519	1397.8021978021977	
1.6791453444721467E12	0.7292707292707292	1369.9633699633698	
1.6791453444760527E12	0.7288267288267287	1381.6849816849815	
1.6791453444799587E12	0.7230547230547231	1390.4761904761904	
1.6791453444838647E12	0.7261627261627261	1424.9084249084249	
1.6791453444877708E12	0.7417027417027416	1488.6446886446886	
1.6791453444916768E12	0.7412587412587412	1578.7545787545787	
1.6791453444955828E12	0.7474747474747476	1682.7838827838827	
1.6791453444994888E12	0.7381507381507381	1750.18315018315	
1.6791453445033948E12	0.7248307248307249	1805.8608058608058	
1.6791453445073008E12	0.7647907647907648	1953.113553113553	
1.6791453445112068E12	0.735042735042735	1968.4981684981683	
1.6791453445151128E12	0.7261627261627261	1999.2673992673992	
1.6791453445190188E12	0.7434787434787435	2104.7619047619046	
1.6791453445229248E12	0.743034743034743	2162.6373626373625	
1.679145344526831E12	0.7306027306027304	2200.0	
1.679145344530737E12	0.7243867243867244	2221.978021978022	
1.679145344534643E12	0.7230547230547231	2252.747252747253	
1.679145344538549E12	0.7226107226107225	2276.190476190476	
1.679145344542455E12	0.7221667221667222	2254.212454212454	
1.679145344546361E12	0.7274947274947274	2183.8827838827838	
1.679145344550267E12	0.7443667443667444	2169.96336996337	
1.679145344554173E12	0.7359307359307358	2153.113553113553	
1.679145344558079E12	0.731046731046731	2088.6446886446884	
1.679145344561985E12	0.7279387279387278	2052.014652014652	
1.679145344565891E12	0.7257187257187256	1991.9413919413919	
1.679145344569797E12	0.7274947274947274	1922.344322344322	
1.6791453445737031E12	0.7288267288267287	1818.3150183150183	
1.6791453445776091E12	0.7532467532467534	1700.3663003663003	
1.6791453445815151E12	0.7496947496947497	1526.007326007326	
1.6791453445854211E12	0.7394827394827396	1402.197802197802	
1.6791453445893271E12	0.7345987345987345	1262.2710622710622	
1.6791453445932332E12	0.7323787323787323	1150.18315018315	
1.6791453445971394E12	0.7288267288267287	1039.5604395604396	
1.6791453446010454E12	0.7283827283827283	939.1941391941391	
1.6791453446049514E12	0.727050727050727	784.6153846153845	
1.6791453446088574E12	0.7243867243867244	671.0622710622711	
1.6791453446127634E12	0.7496947496947497	618.3150183150183	
1.6791453446166694E12	0.7541347541347542	575.091575091575	
1.6791453446205754E12	0.7390387390387391	457.1428571428571	
1.6791453446244814E12	0.7261627261627261	430.7692307692307	
1.6791453446283875E12	0.7230547230547231	458.60805860805857	
1.6791453446322935E12	0.7687867687867688	539.9267399267399	
1.6791453446361995E12	0.7390387390387391	580.952380952381	
1.6791453446401055E12	0.7274947274947274	641.7582417582418	
1.6791453446440115E12	0.7452547452547452	758.9743589743589	
1.6791453446479175E12	0.7439227439227439	848.3516483516484	
1.6791453446518235E12	0.7337107337107337	920.1465201465201	
1.6791453446557295E12	0.727050727050727	1012.4542124542124	
1.6791453446596355E12	0.7243867243867244	1109.1575091575091	
1.6791453446635415E12	0.7239427239427239	1194.8717948717947	
1.6791453446674478E12	0.7239427239427239	1271.7948717948716	
1.6791453446713538E12	0.7306027306027304	1336.263736263736	
1.6791453446752598E12	0.7545787545787547	1429.3040293040292	
1.6791453446791658E12	0.73992673992674	1443.2234432234432	
1.6791453446830718E12	0.735042735042735	1443.2234432234432	
1.6791453446869778E12	0.7257187257187256	1459.3406593406592	
1.6791453446908838E12	0.7248307248307249	1495.970695970696	
1.6791453446947898E12	0.7252747252747253	1540.6593406593406	
1.6791453446986958E12	0.7239427239427239	1575.8241758241757	
1.6791453447026018E12	0.7221667221667222	1585.3479853479853	
1.6791453447065078E12	0.7492507492507493	1646.153846153846	
1.6791453447104138E12	0.7421467421467423	1630.7692307692307	
1.6791453447143198E12	0.7385947385947385	1569.230769230769	
1.6791453447182258E12	0.7479187479187479	1520.14652014652	
1.6791453447221318E12	0.7279387279387278	1369.230769230769	
1.6791453447260378E12	0.7279387279387278	1263.003663003663	
1.6791453447299438E12	0.7217227217227218	1187.5457875457876	
1.6791453447338499E12	0.7274947274947274	1184.6153846153845	
1.679145344737756E12	0.7523587523587524	1232.2344322344322	
1.679145344741662E12	0.7456987456987457	1260.8058608058607	
1.679145344745568E12	0.7319347319347319	1289.3772893772893	
1.679145344749474E12	0.7412587412587412	1361.904761904762	
1.6791453447533801E12	0.7297147297147296	1360.4395604395604	
1.6791453447572861E12	0.7226107226107225	1397.069597069597	
1.6791453447611921E12	0.7212787212787212	1458.6080586080584	
1.6791453447650981E12	0.727050727050727	1540.6593406593406	
1.6791453447690042E12	0.7465867465867466	1645.4212454212452	
1.6791453447729102E12	0.7412587412587412	1716.4835164835163	
1.6791453447768162E12	0.7354867354867355	1725.2747252747251	
1.6791453447807222E12	0.7456987456987457	1745.7875457875457	
1.6791453447846282E12	0.7599067599067599	1690.10989010989	
1.6791453447885342E12	0.7252747252747253	1591.2087912087911	
1.6791453447924402E12	0.7226107226107225	1569.230769230769	
1.6791453447963462E12	0.7297147297147296	1576.5567765567764	
1.6791453448002522E12	0.7465867465867466	1608.058608058608	
1.6791453448041582E12	0.7345987345987345	1616.8498168498168	
1.6791453448080645E12	0.7345987345987345	1602.197802197802	
1.6791453448119705E12	0.7456987456987457	1562.6373626373625	
1.6791453448158765E12	0.7323787323787323	1460.8058608058607	
1.6791453448197825E12	0.7243867243867244	1408.058608058608	
1.6791453448236885E12	0.7221667221667222	1402.9304029304028	
1.6791453448275945E12	0.7203907203907204	1398.5347985347985	
1.6791453448315005E12	0.7479187479187479	1429.3040293040292	
1.6791453448354065E12	0.7496947496947497	1437.3626373626373	
1.6791453448393125E12	0.7341547341547341	1408.7912087912086	
1.6791453448432185E12	0.7279387279387278	1383.150183150183	
1.6791453448471245E12	0.7301587301587301	1369.9633699633698	
1.6791453448510305E12	0.7239427239427239	1353.113553113553	
1.6791453448549365E12	0.7683427683427683	1427.8388278388277	
1.6791453448588425E12	0.7288267288267287	1345.054945054945	
1.6791453448627485E12	0.7443667443667444	1387.5457875457876	
1.6791453448666545E12	0.7368187368187368	1440.2930402930401	
1.6791453448705605E12	0.735042735042735	1457.8754578754579	
1.6791453448744666E12	0.7283827283827283	1478.3882783882782	
1.6791453448783728E12	0.7252747252747253	1506.9597069597069	
1.6791453448822788E12	0.7248307248307249	1524.5421245421244	
1.6791453448861848E12	0.7234987234987235	1526.7399267399267	
1.6791453448900908E12	0.7297147297147296	1533.3333333333333	
1.6791453448939968E12	0.7474747474747476	1577.2893772893772	
1.6791453448979028E12	0.7390387390387391	1578.021978021978	
1.6791453449018088E12	0.7319347319347319	1552.3809523809523	
1.6791453449057148E12	0.7288267288267287	1563.3699633699632	
1.6791453449096208E12	0.727050727050727	1551.6483516483515	
1.6791453449135269E12	0.7283827283827283	1543.5897435897434	
1.6791453449174329E12	0.7283827283827283	1503.2967032967033	
1.6791453449213389E12	0.7501387501387502	1445.4212454212454	
1.6791453449252449E12	0.747030747030747	1322.3443223443223	
1.679145344929151E12	0.7377067377067377	1290.10989010989	
1.679145344933057E12	0.7314907314907314	1273.260073260073	
1.679145344936963E12	0.7297147297147296	1292.3076923076922	
1.679145344940869E12	0.7266067266067265	1294.5054945054944	
1.679145344944775E12	0.7252747252747253	1300.3663003663003	
1.6791453449486812E12	0.7257187257187256	1293.040293040293	
1.6791453449525872E12	0.7510267510267511	1274.7252747252746	
1.6791453449564932E12	0.7474747474747476	1242.4908424908424	
1.6791453449603992E12	0.7363747363747363	1248.3516483516482	
1.6791453449643052E12	0.7319347319347319	1263.7362637362637	
1.6791453449682112E12	0.731046731046731	1279.120879120879	
1.6791453449721172E12	0.7288267288267287	1279.8534798534797	
1.6791453449760232E12	0.7288267288267287	1278.3882783882782	
1.6791453449799292E12	0.7283827283827283	1249.084249084249	
1.6791453449838352E12	0.7243867243867244	1211.7216117216117	
1.6791453449877412E12	0.7496947496947497	1157.5091575091574	
1.6791453449916472E12	0.7417027417027416	1119.4139194139193	
1.6791453449955532E12	0.7363747363747363	1087.9120879120878	
1.6791453449994592E12	0.731046731046731	1079.120879120879	
1.6791453450033652E12	0.7288267288267287	1053.4798534798533	
1.6791453450072712E12	0.7252747252747253	1049.8168498168498	
1.6791453450111772E12	0.7261627261627261	1064.4688644688645	
1.6791453450150835E12	0.7230547230547231	1090.10989010989	
1.6791453450189895E12	0.7505827505827507	1152.3809523809523	
1.6791453450228955E12	0.747030747030747	1171.4285714285713	
1.6791453450268015E12	0.7434787434787435	1128.2051282051282	
1.6791453450307075E12	0.7403707403707404	1065.2014652014652	
1.6791453450346135E12	0.7257187257187256	1083.5164835164835	
1.6791453450385195E12	0.7181707181707182	1176.5567765567764	
1.6791453450424255E12	0.7639027639027639	1377.2893772893772	
1.6791453450463315E12	0.7234987234987235	1438.8278388278388	
1.6791453450502375E12	0.7412587412587412	1604.3956043956043	
1.6791453450541436E12	0.7359307359307358	1782.4175824175823	
1.6791453450580496E12	0.7345987345987345	1924.5421245421244	
1.6791453450619556E12	0.727050727050727	2043.2234432234432	
1.6791453450658616E12	0.7248307248307249	2143.5897435897436	
1.6791453450697676E12	0.7266067266067265	2220.5128205128203	
1.6791453450736736E12	0.7745587745587745	2347.252747252747	
1.6791453450775796E12	0.7496947496947497	2233.6996336996335	
1.6791453450814856E12	0.7448107448107448	2169.96336996337	
1.6791453450853918E12	0.7368187368187368	2165.5677655677655	
1.6791453450892979E12	0.7288267288267287	2101.8315018315016	
1.6791453450932039E12	0.727050727050727	2057.875457875458	
1.6791453450971099E12	0.7243867243867244	2032.234432234432	
1.6791453451010159E12	0.7226107226107225	2013.9194139194137	
1.6791453451049219E12	0.7226107226107225	2002.9304029304028	
1.679145345108828E12	0.7474747474747476	2008.7912087912086	
1.679145345112734E12	0.747030747030747	1927.4725274725274	
1.67914534511664E12	0.7385947385947385	1897.4358974358972	
1.679145345120546E12	0.7283827283827283	1816.117216117216	
1.679145345124452E12	0.7257187257187256	1781.6849816849815	
1.679145345128358E12	0.7514707514707515	1781.6849816849815	
1.679145345132264E12	0.7599067599067599	1772.8937728937728	
1.67914534513617E12	0.7221667221667222	1673.260073260073	
1.679145345140076E12	0.7257187257187256	1668.8644688644688	
1.679145345143982E12	0.7496947496947497	1715.018315018315	
1.679145345147888E12	0.7439227439227439	1718.6813186813185	
1.679145345151794E12	0.735042735042735	1695.970695970696	
1.6791453451557002E12	0.7274947274947274	1703.296703296703	
1.6791453451596062E12	0.7306027306027304	1726.007326007326	
1.6791453451635122E12	0.7239427239427239	1733.3333333333333	
1.6791453451674182E12	0.7257187257187256	1728.937728937729	
1.6791453451713242E12	0.7230547230547231	1690.8424908424906	
1.6791453451752302E12	0.7572427572427574	1674.7252747252746	
1.6791453451791362E12	0.7412587412587412	1594.139194139194	
1.6791453451830422E12	0.7301587301587301	1511.3553113553112	
1.6791453451869482E12	0.731046731046731	1456.4102564102564	
1.6791453451908542E12	0.7283827283827283	1389.0109890109889	
1.6791453451947603E12	0.7283827283827283	1337.7289377289376	
1.6791453451986663E12	0.7288267288267287	1258.6080586080586	
1.6791453452025723E12	0.7306027306027304	1128.937728937729	
1.6791453452064783E12	0.7523587523587524	1065.9340659340658	
1.6791453452103843E12	0.7483627483627484	1007.3260073260072	
1.6791453452142903E12	0.7301587301587301	981.6849816849816	
1.6791453452181963E12	0.7354867354867355	980.9523809523808	
1.6791453452221023E12	0.7239427239427239	986.080586080586	
1.6791453452260085E12	0.7212787212787212	1041.0256410256409	
1.6791453452299146E12	0.7217227217227218	1082.7838827838827	
1.6791453452338206E12	0.7186147186147186	1135.5311355311355	
1.6791453452377266E12	0.7434787434787435	1258.6080586080586	
1.6791453452416326E12	0.7368187368187368	1371.4285714285713	
1.6791453452455386E12	0.7279387279387278	1437.3626373626373	
1.6791453452494446E12	0.7279387279387278	1514.2857142857142	
1.6791453452533506E12	0.7519147519147519	1610.989010989011	
1.6791453452572566E12	0.7603507603507603	1683.5164835164835	
1.6791453452611626E12	0.7221667221667222	1658.6080586080584	
1.6791453452650686E12	0.7266067266067265	1712.8205128205127	
1.6791453452689746E12	0.7456987456987457	1786.8131868131868	
1.6791453452728806E12	0.7385947385947385	1829.3040293040292	
1.6791453452767866E12	0.7345987345987345	1828.5714285714284	
1.6791453452806926E12	0.7314907314907314	1819.047619047619	
1.6791453452845986E12	0.7581307581307581	1792.6739926739926	
1.6791453452885046E12	0.7252747252747253	1652.0146520146518	
1.6791453452924106E12	0.7226107226107225	1604.3956043956043	
1.679145345296317E12	0.7195027195027196	1578.7545787545787	
1.679145345300223E12	0.7461427461427462	1622.7106227106226	
1.679145345304129E12	0.7372627372627372	1617.5824175824175	
1.679145345308035E12	0.7354867354867355	1581.6849816849815	
1.679145345311941E12	0.7585747585747586	1573.6263736263736	
1.679145345315847E12	0.7594627594627595	1487.9120879120878	
1.679145345319753E12	0.7301587301587301	1358.974358974359	
1.679145345323659E12	0.7217227217227218	1301.8315018315018	
1.679145345327565E12	0.7234987234987235	1297.4358974358975	
1.679145345331471E12	0.7421467421467423	1353.113553113553	
1.679145345335377E12	0.7341547341547341	1433.6996336996335	
